# === DATA DESCRIPTION FILE ======================================================
#
# CAUTION - Investigational device.
# Limited by Federal Law to investigational use.
#
# Dataset name: Anthony_Cat_WIP T1rho_5Echoes_40ms
#
# CLINICAL TRYOUT             Research image export tool     V4.2
#
# === GENERAL INFORMATION ========================================================
#
.    Patient name                       :   Anthony Cat
.    Examination name                   :   LT KNEE
.    Protocol name                      :   WIP T1rho_5Echoes_40ms
.    Examination date/time              :   2020.11.30 / 02:01:01
.    Series Type                        :   Image   MRSERIES
.    Acquisition nr                     :   6
.    Reconstruction nr                  :   1
.    Scan Duration [sec]                :   397
.    Max. number of cardiac phases      :   1
.    Max. number of echoes              :   5
.    Max. number of slices/locations    :   66
.    Max. number of dynamics            :   1
.    Max. number of mixes               :   1
.    Patient position                   :   Feet First Supine
.    Preparation direction              :   Anterior-Posterior
.    Technique                          :   T1TFE
.    Scan resolution  (x, y)            :   256  193
.    Scan mode                          :   3D
.    Repetition time [ms]               :   6.827  
.    FOV (ap,fh,rl) [mm]                :   154.000  154.000  99.000
.    Water Fat shift [pixels]           :   1.504
.    Angulation midslice(ap,fh,rl)[degr]:   0.000  -2.369  2.420
.    Off Centre midslice(ap,fh,rl) [mm] :   -70.386  -16.777  75.952
.    Flow compensation <0=no 1=yes> ?   :   0
.    Presaturation     <0=no 1=yes> ?   :   0
.    Phase encoding velocity [cm/sec]   :   0.000000  0.000000  0.000000
.    MTC               <0=no 1=yes> ?   :   0
.    SPIR              <0=no 1=yes> ?   :   0
.    EPI factor        <0,1=no EPI>     :   1
.    Dynamic scan      <0=no 1=yes> ?   :   0
.    Diffusion         <0=no 1=yes> ?   :   0
.    Diffusion echo time [ms]           :   0.0000
.    Max. number of diffusion values    :   1
.    Max. number of gradient orients    :   1
.    Number of label types   <0=no ASL> :   0
#
# === PIXEL VALUES =============================================================
#  PV = pixel value in REC file, FP = floating point value, DV = displayed value on console
#  RS = rescale slope,           RI = rescale intercept,    SS = scale slope
#  DV = PV * RS + RI             FP = DV / (RS * SS)
#
# === IMAGE INFORMATION DEFINITION =============================================
#  The rest of this file contains ONE line per image, this line contains the following information:
#
#  slice number                             (integer)
#  echo number                              (integer)
#  dynamic scan number                      (integer)
#  cardiac phase number                     (integer)
#  image_type_mr                            (integer)
#  scanning sequence                        (integer)
#  index in REC file (in images)            (integer)
#  image pixel size (in bits)               (integer)
#  scan percentage                          (integer)
#  recon resolution (x y)                   (2*integer)
#  rescale intercept                        (float)
#  rescale slope                            (float)
#  scale slope                              (float)
#  window center                            (integer)
#  window width                             (integer)
#  image angulation (ap,fh,rl in degrees )  (3*float)
#  image offcentre (ap,fh,rl in mm )        (3*float)
#  slice thickness (in mm )                 (float)
#  slice gap (in mm )                       (float)
#  image_display_orientation                (integer)
#  slice orientation ( TRA/SAG/COR )        (integer)
#  fmri_status_indication                   (integer)
#  image_type_ed_es  (end diast/end syst)   (integer)
#  pixel spacing (x,y) (in mm)              (2*float)
#  echo_time                                (float)
#  dyn_scan_begin_time                      (float)
#  trigger_time                             (float)
#  diffusion_b_factor                       (float)
#  number of averages                       (integer)
#  image_flip_angle (in degrees)            (float)
#  cardiac frequency   (bpm)                (integer)
#  minimum RR-interval (in ms)              (integer)
#  maximum RR-interval (in ms)              (integer)
#  TURBO factor  <0=no turbo>               (integer)
#  Inversion delay (in ms)                  (float)
#  diffusion b value number    (imagekey!)  (integer)
#  gradient orientation number (imagekey!)  (integer)
#  contrast type                            (string)
#  diffusion anisotropy type                (string)
#  diffusion (ap, fh, rl)                   (3*float)
#  label type (ASL)            (imagekey!)  (integer)
#  Contrast Bolus Agent                     (string)
#  Contrast Bolus Route                     (float)
#  Contrast Bolus Volume                    (string)
#  Contrast Bolus Start Time                (string)
#  Contrast Bolus Total Dose                (float)
#  Contrast Bolus Ingredient                (string)
#  Contrast Bolus Ingredient Concentration  (float)
#
# === IMAGE INFORMATION ==========================================================
#  sl ec  dyn ph ty    idx pix scan% rec size                (re)scale              window        angulation              offcentre        thick   gap   info      spacing     echo     dtime   ttime    diff  avg  flip    freq   RR-int  turbo delay b grad cont anis         diffusion       L.ty  contagent   controute  contvolume  conttime  contdose  contingr  contingrconcen

  1   1    1  1 0 2     0  16    59  320  320     0.00000   6.84273  1.84490e-03   364   632   0.00  -2.37   2.42  -72.40  -16.86  124.66  3.000 -1.500 0 2 0 2  0.481  0.481   2.66    0.00     0.00    0.00   1    8.00     0    0    0   110 1700.0  1   1    7    0   0.000    0.000    0.000  1  0.000000  0.000000  0.000000
  2   1    1  1 0 2     1  16    59  320  320     0.00000   6.84273  1.84490e-03   453   787   0.00  -2.37   2.42  -72.34  -16.86  123.16  3.000 -1.500 0 2 0 2  0.481  0.481   2.66    0.00     0.00    0.00   1    8.00     0    0    0   110 1700.0  1   1    7    0   0.000    0.000    0.000  1  0.000000  0.000000  0.000000
  3   1    1  1 0 2     2  16    59  320  320     0.00000   6.84273  1.84490e-03   577  1003   0.00  -2.37   2.42  -72.28  -16.86  121.66  3.000 -1.500 0 2 0 2  0.481  0.481   2.66    0.00     0.00    0.00   1    8.00     0    0    0   110 1700.0  1   1    7    0   0.000    0.000    0.000  1  0.000000  0.000000  0.000000
  4   1    1  1 0 2     3  16    59  320  320     0.00000   6.84273  1.84490e-03   705  1226   0.00  -2.37   2.42  -72.21  -16.85  120.16  3.000 -1.500 0 2 0 2  0.481  0.481   2.66    0.00     0.00    0.00   1    8.00     0    0    0   110 1700.0  1   1    7    0   0.000    0.000    0.000  1  0.000000  0.000000  0.000000
  5   1    1  1 0 2     4  16    59  320  320     0.00000   6.84273  1.84490e-03   786  1367   0.00  -2.37   2.42  -72.15  -16.85  118.67  3.000 -1.500 0 2 0 2  0.481  0.481   2.66    0.00     0.00    0.00   1    8.00     0    0    0   110 1700.0  1   1    7    0   0.000    0.000    0.000  1  0.000000  0.000000  0.000000
  6   1    1  1 0 2     5  16    59  320  320     0.00000   6.84273  1.84490e-03   863  1500   0.00  -2.37   2.42  -72.09  -16.85  117.17  3.000 -1.500 0 2 0 2  0.481  0.481   2.66    0.00     0.00    0.00   1    8.00     0    0    0   110 1700.0  1   1    7    0   0.000    0.000    0.000  1  0.000000  0.000000  0.000000
  7   1    1  1 0 2     6  16    59  320  320     0.00000   6.84273  1.84490e-03   862  1499   0.00  -2.37   2.42  -72.03  -16.85  115.67  3.000 -1.500 0 2 0 2  0.481  0.481   2.66    0.00     0.00    0.00   1    8.00     0    0    0   110 1700.0  1   1    7    0   0.000    0.000    0.000  1  0.000000  0.000000  0.000000
  8   1    1  1 0 2     7  16    59  320  320     0.00000   6.84273  1.84490e-03   886  1541   0.00  -2.37   2.42  -71.97  -16.84  114.17  3.000 -1.500 0 2 0 2  0.481  0.481   2.66    0.00     0.00    0.00   1    8.00     0    0    0   110 1700.0  1   1    7    0   0.000    0.000    0.000  1  0.000000  0.000000  0.000000
  9   1    1  1 0 2     8  16    59  320  320     0.00000   6.84273  1.84490e-03   912  1586   0.00  -2.37   2.42  -71.90  -16.84  112.67  3.000 -1.500 0 2 0 2  0.481  0.481   2.66    0.00     0.00    0.00   1    8.00     0    0    0   110 1700.0  1   1    7    0   0.000    0.000    0.000  1  0.000000  0.000000  0.000000
 10   1    1  1 0 2     9  16    59  320  320     0.00000   6.84273  1.84490e-03   976  1697   0.00  -2.37   2.42  -71.84  -16.84  111.17  3.000 -1.500 0 2 0 2  0.481  0.481   2.66    0.00     0.00    0.00   1    8.00     0    0    0   110 1700.0  1   1    7    0   0.000    0.000    0.000  1  0.000000  0.000000  0.000000
 11   1    1  1 0 2    10  16    59  320  320     0.00000   6.84273  1.84490e-03   936  1628   0.00  -2.37   2.42  -71.78  -16.84  109.67  3.000 -1.500 0 2 0 2  0.481  0.481   2.66    0.00     0.00    0.00   1    8.00     0    0    0   110 1700.0  1   1    7    0   0.000    0.000    0.000  1  0.000000  0.000000  0.000000
 12   1    1  1 0 2    11  16    59  320  320     0.00000   6.84273  1.84490e-03   919  1598   0.00  -2.37   2.42  -71.72  -16.83  108.17  3.000 -1.500 0 2 0 2  0.481  0.481   2.66    0.00     0.00    0.00   1    8.00     0    0    0   110 1700.0  1   1    7    0   0.000    0.000    0.000  1  0.000000  0.000000  0.000000
 13   1    1  1 0 2    12  16    59  320  320     0.00000   6.84273  1.84490e-03   947  1646   0.00  -2.37   2.42  -71.66  -16.83  106.68  3.000 -1.500 0 2 0 2  0.481  0.481   2.66    0.00     0.00    0.00   1    8.00     0    0    0   110 1700.0  1   1    7    0   0.000    0.000    0.000  1  0.000000  0.000000  0.000000
 14   1    1  1 0 2    13  16    59  320  320     0.00000   6.84273  1.84490e-03   963  1674   0.00  -2.37   2.42  -71.59  -16.83  105.18  3.000 -1.500 0 2 0 2  0.481  0.481   2.66    0.00     0.00    0.00   1    8.00     0    0    0   110 1700.0  1   1    7    0   0.000    0.000    0.000  1  0.000000  0.000000  0.000000
 15   1    1  1 0 2    14  16    59  320  320     0.00000   6.84273  1.84490e-03   974  1693   0.00  -2.37   2.42  -71.53  -16.83  103.68  3.000 -1.500 0 2 0 2  0.481  0.481   2.66    0.00     0.00    0.00   1    8.00     0    0    0   110 1700.0  1   1    7    0   0.000    0.000    0.000  1  0.000000  0.000000  0.000000
 16   1    1  1 0 2    15  16    59  320  320     0.00000   6.84273  1.84490e-03   999  1736   0.00  -2.37   2.42  -71.47  -16.82  102.18  3.000 -1.500 0 2 0 2  0.481  0.481   2.66    0.00     0.00    0.00   1    8.00     0    0    0   110 1700.0  1   1    7    0   0.000    0.000    0.000  1  0.000000  0.000000  0.000000
 17   1    1  1 0 2    16  16    59  320  320     0.00000   6.84273  1.84490e-03  1005  1748   0.00  -2.37   2.42  -71.41  -16.82  100.68  3.000 -1.500 0 2 0 2  0.481  0.481   2.66    0.00     0.00    0.00   1    8.00     0    0    0   110 1700.0  1   1    7    0   0.000    0.000    0.000  1  0.000000  0.000000  0.000000
 18   1    1  1 0 2    17  16    59  320  320     0.00000   6.84273  1.84490e-03  1008  1752   0.00  -2.37   2.42  -71.35  -16.82   99.18  3.000 -1.500 0 2 0 2  0.481  0.481   2.66    0.00     0.00    0.00   1    8.00     0    0    0   110 1700.0  1   1    7    0   0.000    0.000    0.000  1  0.000000  0.000000  0.000000
 19   1    1  1 0 2    18  16    59  320  320     0.00000   6.84273  1.84490e-03  1041  1809   0.00  -2.37   2.42  -71.28  -16.82   97.68  3.000 -1.500 0 2 0 2  0.481  0.481   2.66    0.00     0.00    0.00   1    8.00     0    0    0   110 1700.0  1   1    7    0   0.000    0.000    0.000  1  0.000000  0.000000  0.000000
 20   1    1  1 0 2    19  16    59  320  320     0.00000   6.84273  1.84490e-03  1040  1809   0.00  -2.37   2.42  -71.22  -16.81   96.18  3.000 -1.500 0 2 0 2  0.481  0.481   2.66    0.00     0.00    0.00   1    8.00     0    0    0   110 1700.0  1   1    7    0   0.000    0.000    0.000  1  0.000000  0.000000  0.000000
 21   1    1  1 0 2    20  16    59  320  320     0.00000   6.84273  1.84490e-03  1050  1825   0.00  -2.37   2.42  -71.16  -16.81   94.69  3.000 -1.500 0 2 0 2  0.481  0.481   2.66    0.00     0.00    0.00   1    8.00     0    0    0   110 1700.0  1   1    7    0   0.000    0.000    0.000  1  0.000000  0.000000  0.000000
 22   1    1  1 0 2    21  16    59  320  320     0.00000   6.84273  1.84490e-03  1026  1784   0.00  -2.37   2.42  -71.10  -16.81   93.19  3.000 -1.500 0 2 0 2  0.481  0.481   2.66    0.00     0.00    0.00   1    8.00     0    0    0   110 1700.0  1   1    7    0   0.000    0.000    0.000  1  0.000000  0.000000  0.000000
 23   1    1  1 0 2    22  16    59  320  320     0.00000   6.84273  1.84490e-03  1002  1741   0.00  -2.37   2.42  -71.04  -16.80   91.69  3.000 -1.500 0 2 0 2  0.481  0.481   2.66    0.00     0.00    0.00   1    8.00     0    0    0   110 1700.0  1   1    7    0   0.000    0.000    0.000  1  0.000000  0.000000  0.000000
 24   1    1  1 0 2    23  16    59  320  320     0.00000   6.84273  1.84490e-03   991  1722   0.00  -2.37   2.42  -70.97  -16.80   90.19  3.000 -1.500 0 2 0 2  0.481  0.481   2.66    0.00     0.00    0.00   1    8.00     0    0    0   110 1700.0  1   1    7    0   0.000    0.000    0.000  1  0.000000  0.000000  0.000000
 25   1    1  1 0 2    24  16    59  320  320     0.00000   6.84273  1.84490e-03   993  1726   0.00  -2.37   2.42  -70.91  -16.80   88.69  3.000 -1.500 0 2 0 2  0.481  0.481   2.66    0.00     0.00    0.00   1    8.00     0    0    0   110 1700.0  1   1    7    0   0.000    0.000    0.000  1  0.000000  0.000000  0.000000
 26   1    1  1 0 2    25  16    59  320  320     0.00000   6.84273  1.84490e-03   996  1732   0.00  -2.37   2.42  -70.85  -16.80   87.19  3.000 -1.500 0 2 0 2  0.481  0.481   2.66    0.00     0.00    0.00   1    8.00     0    0    0   110 1700.0  1   1    7    0   0.000    0.000    0.000  1  0.000000  0.000000  0.000000
 27   1    1  1 0 2    26  16    59  320  320     0.00000   6.84273  1.84490e-03   984  1711   0.00  -2.37   2.42  -70.79  -16.79   85.69  3.000 -1.500 0 2 0 2  0.481  0.481   2.66    0.00     0.00    0.00   1    8.00     0    0    0   110 1700.0  1   1    7    0   0.000    0.000    0.000  1  0.000000  0.000000  0.000000
 28   1    1  1 0 2    27  16    59  320  320     0.00000   6.84273  1.84490e-03  1026  1784   0.00  -2.37   2.42  -70.73  -16.79   84.19  3.000 -1.500 0 2 0 2  0.481  0.481   2.66    0.00     0.00    0.00   1    8.00     0    0    0   110 1700.0  1   1    7    0   0.000    0.000    0.000  1  0.000000  0.000000  0.000000
 29   1    1  1 0 2    28  16    59  320  320     0.00000   6.84273  1.84490e-03  1054  1832   0.00  -2.37   2.42  -70.67  -16.79   82.70  3.000 -1.500 0 2 0 2  0.481  0.481   2.66    0.00     0.00    0.00   1    8.00     0    0    0   110 1700.0  1   1    7    0   0.000    0.000    0.000  1  0.000000  0.000000  0.000000
 30   1    1  1 0 2    29  16    59  320  320     0.00000   6.84273  1.84490e-03  1077  1872   0.00  -2.37   2.42  -70.60  -16.79   81.20  3.000 -1.500 0 2 0 2  0.481  0.481   2.66    0.00     0.00    0.00   1    8.00     0    0    0   110 1700.0  1   1    7    0   0.000    0.000    0.000  1  0.000000  0.000000  0.000000
 31   1    1  1 0 2    30  16    59  320  320     0.00000   6.84273  1.84490e-03  1094  1902   0.00  -2.37   2.42  -70.54  -16.78   79.70  3.000 -1.500 0 2 0 2  0.481  0.481   2.66    0.00     0.00    0.00   1    8.00     0    0    0   110 1700.0  1   1    7    0   0.000    0.000    0.000  1  0.000000  0.000000  0.000000
 32   1    1  1 0 2    31  16    59  320  320     0.00000   6.84273  1.84490e-03  1110  1929   0.00  -2.37   2.42  -70.48  -16.78   78.20  3.000 -1.500 0 2 0 2  0.481  0.481   2.66    0.00     0.00    0.00   1    8.00     0    0    0   110 1700.0  1   1    7    0   0.000    0.000    0.000  1  0.000000  0.000000  0.000000
 33   1    1  1 0 2    32  16    59  320  320     0.00000   6.84273  1.84490e-03  1095  1903   0.00  -2.37   2.42  -70.42  -16.78   76.70  3.000 -1.500 0 2 0 2  0.481  0.481   2.66    0.00     0.00    0.00   1    8.00     0    0    0   110 1700.0  1   1    7    0   0.000    0.000    0.000  1  0.000000  0.000000  0.000000
 34   1    1  1 0 2    33  16    59  320  320     0.00000   6.84273  1.84490e-03  1070  1860   0.00  -2.37   2.42  -70.36  -16.78   75.20  3.000 -1.500 0 2 0 2  0.481  0.481   2.66    0.00     0.00    0.00   1    8.00     0    0    0   110 1700.0  1   1    7    0   0.000    0.000    0.000  1  0.000000  0.000000  0.000000
 35   1    1  1 0 2    34  16    59  320  320     0.00000   6.84273  1.84490e-03  1042  1812   0.00  -2.37   2.42  -70.29  -16.77   73.70  3.000 -1.500 0 2 0 2  0.481  0.481   2.66    0.00     0.00    0.00   1    8.00     0    0    0   110 1700.0  1   1    7    0   0.000    0.000    0.000  1  0.000000  0.000000  0.000000
 36   1    1  1 0 2    35  16    59  320  320     0.00000   6.84273  1.84490e-03  1013  1760   0.00  -2.37   2.42  -70.23  -16.77   72.21  3.000 -1.500 0 2 0 2  0.481  0.481   2.66    0.00     0.00    0.00   1    8.00     0    0    0   110 1700.0  1   1    7    0   0.000    0.000    0.000  1  0.000000  0.000000  0.000000
 37   1    1  1 0 2    36  16    59  320  320     0.00000   6.84273  1.84490e-03  1036  1800   0.00  -2.37   2.42  -70.17  -16.77   70.71  3.000 -1.500 0 2 0 2  0.481  0.481   2.66    0.00     0.00    0.00   1    8.00     0    0    0   110 1700.0  1   1    7    0   0.000    0.000    0.000  1  0.000000  0.000000  0.000000
 38   1    1  1 0 2    37  16    59  320  320     0.00000   6.84273  1.84490e-03  1046  1818   0.00  -2.37   2.42  -70.11  -16.77   69.21  3.000 -1.500 0 2 0 2  0.481  0.481   2.66    0.00     0.00    0.00   1    8.00     0    0    0   110 1700.0  1   1    7    0   0.000    0.000    0.000  1  0.000000  0.000000  0.000000
 39   1    1  1 0 2    38  16    59  320  320     0.00000   6.84273  1.84490e-03  1023  1778   0.00  -2.37   2.42  -70.05  -16.76   67.71  3.000 -1.500 0 2 0 2  0.481  0.481   2.66    0.00     0.00    0.00   1    8.00     0    0    0   110 1700.0  1   1    7    0   0.000    0.000    0.000  1  0.000000  0.000000  0.000000
 40   1    1  1 0 2    39  16    59  320  320     0.00000   6.84273  1.84490e-03  1067  1856   0.00  -2.37   2.42  -69.98  -16.76   66.21  3.000 -1.500 0 2 0 2  0.481  0.481   2.66    0.00     0.00    0.00   1    8.00     0    0    0   110 1700.0  1   1    7    0   0.000    0.000    0.000  1  0.000000  0.000000  0.000000
 41   1    1  1 0 2    40  16    59  320  320     0.00000   6.84273  1.84490e-03  1120  1946   0.00  -2.37   2.42  -69.92  -16.76   64.71  3.000 -1.500 0 2 0 2  0.481  0.481   2.66    0.00     0.00    0.00   1    8.00     0    0    0   110 1700.0  1   1    7    0   0.000    0.000    0.000  1  0.000000  0.000000  0.000000
 42   1    1  1 0 2    41  16    59  320  320     0.00000   6.84273  1.84490e-03  1096  1905   0.00  -2.37   2.42  -69.86  -16.76   63.21  3.000 -1.500 0 2 0 2  0.481  0.481   2.66    0.00     0.00    0.00   1    8.00     0    0    0   110 1700.0  1   1    7    0   0.000    0.000    0.000  1  0.000000  0.000000  0.000000
 43   1    1  1 0 2    42  16    59  320  320     0.00000   6.84273  1.84490e-03  1129  1962   0.00  -2.37   2.42  -69.80  -16.75   61.71  3.000 -1.500 0 2 0 2  0.481  0.481   2.66    0.00     0.00    0.00   1    8.00     0    0    0   110 1700.0  1   1    7    0   0.000    0.000    0.000  1  0.000000  0.000000  0.000000
 44   1    1  1 0 2    43  16    59  320  320     0.00000   6.84273  1.84490e-03  1217  2116   0.00  -2.37   2.42  -69.74  -16.75   60.22  3.000 -1.500 0 2 0 2  0.481  0.481   2.66    0.00     0.00    0.00   1    8.00     0    0    0   110 1700.0  1   1    7    0   0.000    0.000    0.000  1  0.000000  0.000000  0.000000
 45   1    1  1 0 2    44  16    59  320  320     0.00000   6.84273  1.84490e-03  1237  2150   0.00  -2.37   2.42  -69.67  -16.75   58.72  3.000 -1.500 0 2 0 2  0.481  0.481   2.66    0.00     0.00    0.00   1    8.00     0    0    0   110 1700.0  1   1    7    0   0.000    0.000    0.000  1  0.000000  0.000000  0.000000
 46   1    1  1 0 2    45  16    59  320  320     0.00000   6.84273  1.84490e-03  1212  2106   0.00  -2.37   2.42  -69.61  -16.74   57.22  3.000 -1.500 0 2 0 2  0.481  0.481   2.66    0.00     0.00    0.00   1    8.00     0    0    0   110 1700.0  1   1    7    0   0.000    0.000    0.000  1  0.000000  0.000000  0.000000
 47   1    1  1 0 2    46  16    59  320  320     0.00000   6.84273  1.84490e-03  1172  2037   0.00  -2.37   2.42  -69.55  -16.74   55.72  3.000 -1.500 0 2 0 2  0.481  0.481   2.66    0.00     0.00    0.00   1    8.00     0    0    0   110 1700.0  1   1    7    0   0.000    0.000    0.000  1  0.000000  0.000000  0.000000
 48   1    1  1 0 2    47  16    59  320  320     0.00000   6.84273  1.84490e-03  1151  2000   0.00  -2.37   2.42  -69.49  -16.74   54.22  3.000 -1.500 0 2 0 2  0.481  0.481   2.66    0.00     0.00    0.00   1    8.00     0    0    0   110 1700.0  1   1    7    0   0.000    0.000    0.000  1  0.000000  0.000000  0.000000
 49   1    1  1 0 2    48  16    59  320  320     0.00000   6.84273  1.84490e-03  1126  1957   0.00  -2.37   2.42  -69.43  -16.74   52.72  3.000 -1.500 0 2 0 2  0.481  0.481   2.66    0.00     0.00    0.00   1    8.00     0    0    0   110 1700.0  1   1    7    0   0.000    0.000    0.000  1  0.000000  0.000000  0.000000
 50   1    1  1 0 2    49  16    59  320  320     0.00000   6.84273  1.84490e-03  1149  1997   0.00  -2.37   2.42  -69.36  -16.73   51.22  3.000 -1.500 0 2 0 2  0.481  0.481   2.66    0.00     0.00    0.00   1    8.00     0    0    0   110 1700.0  1   1    7    0   0.000    0.000    0.000  1  0.000000  0.000000  0.000000
 51   1    1  1 0 2    50  16    59  320  320     0.00000   6.84273  1.84490e-03  1132  1968   0.00  -2.37   2.42  -69.30  -16.73   49.72  3.000 -1.500 0 2 0 2  0.481  0.481   2.66    0.00     0.00    0.00   1    8.00     0    0    0   110 1700.0  1   1    7    0   0.000    0.000    0.000  1  0.000000  0.000000  0.000000
 52   1    1  1 0 2    51  16    59  320  320     0.00000   6.84273  1.84490e-03  1099  1911   0.00  -2.37   2.42  -69.24  -16.73   48.23  3.000 -1.500 0 2 0 2  0.481  0.481   2.66    0.00     0.00    0.00   1    8.00     0    0    0   110 1700.0  1   1    7    0   0.000    0.000    0.000  1  0.000000  0.000000  0.000000
 53   1    1  1 0 2    52  16    59  320  320     0.00000   6.84273  1.84490e-03  1082  1880   0.00  -2.37   2.42  -69.18  -16.73   46.73  3.000 -1.500 0 2 0 2  0.481  0.481   2.66    0.00     0.00    0.00   1    8.00     0    0    0   110 1700.0  1   1    7    0   0.000    0.000    0.000  1  0.000000  0.000000  0.000000
 54   1    1  1 0 2    53  16    59  320  320     0.00000   6.84273  1.84490e-03  1065  1852   0.00  -2.37   2.42  -69.12  -16.72   45.23  3.000 -1.500 0 2 0 2  0.481  0.481   2.66    0.00     0.00    0.00   1    8.00     0    0    0   110 1700.0  1   1    7    0   0.000    0.000    0.000  1  0.000000  0.000000  0.000000
 55   1    1  1 0 2    54  16    59  320  320     0.00000   6.84273  1.84490e-03  1035  1800   0.00  -2.37   2.42  -69.05  -16.72   43.73  3.000 -1.500 0 2 0 2  0.481  0.481   2.66    0.00     0.00    0.00   1    8.00     0    0    0   110 1700.0  1   1    7    0   0.000    0.000    0.000  1  0.000000  0.000000  0.000000
 56   1    1  1 0 2    55  16    59  320  320     0.00000   6.84273  1.84490e-03   990  1721   0.00  -2.37   2.42  -68.99  -16.72   42.23  3.000 -1.500 0 2 0 2  0.481  0.481   2.66    0.00     0.00    0.00   1    8.00     0    0    0   110 1700.0  1   1    7    0   0.000    0.000    0.000  1  0.000000  0.000000  0.000000
 57   1    1  1 0 2    56  16    59  320  320     0.00000   6.84273  1.84490e-03   965  1678   0.00  -2.37   2.42  -68.93  -16.72   40.73  3.000 -1.500 0 2 0 2  0.481  0.481   2.66    0.00     0.00    0.00   1    8.00     0    0    0   110 1700.0  1   1    7    0   0.000    0.000    0.000  1  0.000000  0.000000  0.000000
 58   1    1  1 0 2    57  16    59  320  320     0.00000   6.84273  1.84490e-03   933  1623   0.00  -2.37   2.42  -68.87  -16.71   39.23  3.000 -1.500 0 2 0 2  0.481  0.481   2.66    0.00     0.00    0.00   1    8.00     0    0    0   110 1700.0  1   1    7    0   0.000    0.000    0.000  1  0.000000  0.000000  0.000000
 59   1    1  1 0 2    58  16    59  320  320     0.00000   6.84273  1.84490e-03   946  1644   0.00  -2.37   2.42  -68.81  -16.71   37.73  3.000 -1.500 0 2 0 2  0.481  0.481   2.66    0.00     0.00    0.00   1    8.00     0    0    0   110 1700.0  1   1    7    0   0.000    0.000    0.000  1  0.000000  0.000000  0.000000
 60   1    1  1 0 2    59  16    59  320  320     0.00000   6.84273  1.84490e-03   833  1448   0.00  -2.37   2.42  -68.74  -16.71   36.24  3.000 -1.500 0 2 0 2  0.481  0.481   2.66    0.00     0.00    0.00   1    8.00     0    0    0   110 1700.0  1   1    7    0   0.000    0.000    0.000  1  0.000000  0.000000  0.000000
 61   1    1  1 0 2    60  16    59  320  320     0.00000   6.84273  1.84490e-03   732  1273   0.00  -2.37   2.42  -68.68  -16.71   34.74  3.000 -1.500 0 2 0 2  0.481  0.481   2.66    0.00     0.00    0.00   1    8.00     0    0    0   110 1700.0  1   1    7    0   0.000    0.000    0.000  1  0.000000  0.000000  0.000000
 62   1    1  1 0 2    61  16    59  320  320     0.00000   6.84273  1.84490e-03   653  1135   0.00  -2.37   2.42  -68.62  -16.70   33.24  3.000 -1.500 0 2 0 2  0.481  0.481   2.66    0.00     0.00    0.00   1    8.00     0    0    0   110 1700.0  1   1    7    0   0.000    0.000    0.000  1  0.000000  0.000000  0.000000
 63   1    1  1 0 2    62  16    59  320  320     0.00000   6.84273  1.84490e-03   636  1106   0.00  -2.37   2.42  -68.56  -16.70   31.74  3.000 -1.500 0 2 0 2  0.481  0.481   2.66    0.00     0.00    0.00   1    8.00     0    0    0   110 1700.0  1   1    7    0   0.000    0.000    0.000  1  0.000000  0.000000  0.000000
 64   1    1  1 0 2    63  16    59  320  320     0.00000   6.84273  1.84490e-03   594  1033   0.00  -2.37   2.42  -68.50  -16.70   30.24  3.000 -1.500 0 2 0 2  0.481  0.481   2.66    0.00     0.00    0.00   1    8.00     0    0    0   110 1700.0  1   1    7    0   0.000    0.000    0.000  1  0.000000  0.000000  0.000000
 65   1    1  1 0 2    64  16    59  320  320     0.00000   6.84273  1.84490e-03   445   774   0.00  -2.37   2.42  -68.43  -16.69   28.74  3.000 -1.500 0 2 0 2  0.481  0.481   2.66    0.00     0.00    0.00   1    8.00     0    0    0   110 1700.0  1   1    7    0   0.000    0.000    0.000  1  0.000000  0.000000  0.000000
 66   1    1  1 0 2    65  16    59  320  320     0.00000   6.84273  1.84490e-03   329   572   0.00  -2.37   2.42  -68.37  -16.69   27.24  3.000 -1.500 0 2 0 2  0.481  0.481   2.66    0.00     0.00    0.00   1    8.00     0    0    0   110 1700.0  1   1    7    0   0.000    0.000    0.000  1  0.000000  0.000000  0.000000
  1   2    1  1 0 2    66  16    59  320  320     0.00000   9.45641  1.33497e-03   283   493   0.00  -2.37   2.42  -72.40  -16.86  124.66  3.000 -1.500 0 2 0 2  0.481  0.481  10.00    0.00     0.00    0.00   1    8.00     0    0    0   110 1700.0  1   1   11    0   0.000    0.000    0.000  1  0.000000  0.000000  0.000000
  2   2    1  1 0 2    67  16    59  320  320     0.00000   9.45641  1.33497e-03   348   604   0.00  -2.37   2.42  -72.34  -16.86  123.16  3.000 -1.500 0 2 0 2  0.481  0.481  10.00    0.00     0.00    0.00   1    8.00     0    0    0   110 1700.0  1   1   11    0   0.000    0.000    0.000  1  0.000000  0.000000  0.000000
  3   2    1  1 0 2    68  16    59  320  320     0.00000   9.45641  1.33497e-03   433   753   0.00  -2.37   2.42  -72.28  -16.86  121.66  3.000 -1.500 0 2 0 2  0.481  0.481  10.00    0.00     0.00    0.00   1    8.00     0    0    0   110 1700.0  1   1   11    0   0.000    0.000    0.000  1  0.000000  0.000000  0.000000
  4   2    1  1 0 2    69  16    59  320  320     0.00000   9.45641  1.33497e-03   512   889   0.00  -2.37   2.42  -72.21  -16.85  120.16  3.000 -1.500 0 2 0 2  0.481  0.481  10.00    0.00     0.00    0.00   1    8.00     0    0    0   110 1700.0  1   1   11    0   0.000    0.000    0.000  1  0.000000  0.000000  0.000000
  5   2    1  1 0 2    70  16    59  320  320     0.00000   9.45641  1.33497e-03   547   952   0.00  -2.37   2.42  -72.15  -16.85  118.67  3.000 -1.500 0 2 0 2  0.481  0.481  10.00    0.00     0.00    0.00   1    8.00     0    0    0   110 1700.0  1   1   11    0   0.000    0.000    0.000  1  0.000000  0.000000  0.000000
  6   2    1  1 0 2    71  16    59  320  320     0.00000   9.45641  1.33497e-03   597  1038   0.00  -2.37   2.42  -72.09  -16.85  117.17  3.000 -1.500 0 2 0 2  0.481  0.481  10.00    0.00     0.00    0.00   1    8.00     0    0    0   110 1700.0  1   1   11    0   0.000    0.000    0.000  1  0.000000  0.000000  0.000000
  7   2    1  1 0 2    72  16    59  320  320     0.00000   9.45641  1.33497e-03   602  1047   0.00  -2.37   2.42  -72.03  -16.85  115.67  3.000 -1.500 0 2 0 2  0.481  0.481  10.00    0.00     0.00    0.00   1    8.00     0    0    0   110 1700.0  1   1   11    0   0.000    0.000    0.000  1  0.000000  0.000000  0.000000
  8   2    1  1 0 2    73  16    59  320  320     0.00000   9.45641  1.33497e-03   631  1097   0.00  -2.37   2.42  -71.97  -16.84  114.17  3.000 -1.500 0 2 0 2  0.481  0.481  10.00    0.00     0.00    0.00   1    8.00     0    0    0   110 1700.0  1   1   11    0   0.000    0.000    0.000  1  0.000000  0.000000  0.000000
  9   2    1  1 0 2    74  16    59  320  320     0.00000   9.45641  1.33497e-03   668  1161   0.00  -2.37   2.42  -71.90  -16.84  112.67  3.000 -1.500 0 2 0 2  0.481  0.481  10.00    0.00     0.00    0.00   1    8.00     0    0    0   110 1700.0  1   1   11    0   0.000    0.000    0.000  1  0.000000  0.000000  0.000000
