# === DATA DESCRIPTION FILE ======================================================
#
# CAUTION - Investigational device.
# Limited by Federal Law to investigational use.
#
# Dataset name: Anthony_Cat_WIP_3D_WATSf_ISO
#
# CLINICAL TRYOUT             Research image export tool     V4.2
#
# === GENERAL INFORMATION ========================================================
#
.    Patient name                       :   Anthony Cat
.    Examination name                   :   LT KNEE
.    Protocol name                      :   WIP 3D_WATSf ISO
.    Examination date/time              :   2020.11.30 / 01:01:01
.    Series Type                        :   Image   MRSERIES
.    Acquisition nr                     :   3
.    Reconstruction nr                  :   1
.    Scan Duration [sec]                :   229
.    Max. number of cardiac phases      :   1
.    Max. number of echoes              :   1
.    Max. number of slices/locations    :   300
.    Max. number of dynamics            :   1
.    Max. number of mixes               :   1
.    Patient position                   :   Feet First Supine
.    Preparation direction              :   Anterior-Posterior
.    Technique                          :   FFE
.    Scan resolution  (x, y)            :   200  200
.    Scan mode                          :   3D
.    Repetition time [ms]               :   20.000  
.    FOV (ap,fh,rl) [mm]                :   140.000  140.000  105.000
.    Water Fat shift [pixels]           :   1.001
.    Angulation midslice(ap,fh,rl)[degr]:   0.000  -2.369  2.420
.    Off Centre midslice(ap,fh,rl) [mm] :   -70.386  -16.777  75.952
.    Flow compensation <0=no 1=yes> ?   :   0
.    Presaturation     <0=no 1=yes> ?   :   0
.    Phase encoding velocity [cm/sec]   :   0.000000  0.000000  0.000000
.    MTC               <0=no 1=yes> ?   :   0
.    SPIR              <0=no 1=yes> ?   :   0
.    EPI factor        <0,1=no EPI>     :   1
.    Dynamic scan      <0=no 1=yes> ?   :   0
.    Diffusion         <0=no 1=yes> ?   :   0
.    Diffusion echo time [ms]           :   0.0000
.    Max. number of diffusion values    :   1
.    Max. number of gradient orients    :   1
.    Number of label types   <0=no ASL> :   0
#
# === PIXEL VALUES =============================================================
#  PV = pixel value in REC file, FP = floating point value, DV = displayed value on console
#  RS = rescale slope,           RI = rescale intercept,    SS = scale slope
#  DV = PV * RS + RI             FP = DV / (RS * SS)
#
# === IMAGE INFORMATION DEFINITION =============================================
#  The rest of this file contains ONE line per image, this line contains the following information:
#
#  slice number                             (integer)
#  echo number                              (integer)
#  dynamic scan number                      (integer)
#  cardiac phase number                     (integer)
#  image_type_mr                            (integer)
#  scanning sequence                        (integer)
#  index in REC file (in images)            (integer)
#  image pixel size (in bits)               (integer)
#  scan percentage                          (integer)
#  recon resolution (x y)                   (2*integer)
#  rescale intercept                        (float)
#  rescale slope                            (float)
#  scale slope                              (float)
#  window center                            (integer)
#  window width                             (integer)
#  image angulation (ap,fh,rl in degrees )  (3*float)
#  image offcentre (ap,fh,rl in mm )        (3*float)
#  slice thickness (in mm )                 (float)
#  slice gap (in mm )                       (float)
#  image_display_orientation                (integer)
#  slice orientation ( TRA/SAG/COR )        (integer)
#  fmri_status_indication                   (integer)
#  image_type_ed_es  (end diast/end syst)   (integer)
#  pixel spacing (x,y) (in mm)              (2*float)
#  echo_time                                (float)
#  dyn_scan_begin_time                      (float)
#  trigger_time                             (float)
#  diffusion_b_factor                       (float)
#  number of averages                       (integer)
#  image_flip_angle (in degrees)            (float)
#  cardiac frequency   (bpm)                (integer)
#  minimum RR-interval (in ms)              (integer)
#  maximum RR-interval (in ms)              (integer)
#  TURBO factor  <0=no turbo>               (integer)
#  Inversion delay (in ms)                  (float)
#  diffusion b value number    (imagekey!)  (integer)
#  gradient orientation number (imagekey!)  (integer)
#  contrast type                            (string)
#  diffusion anisotropy type                (string)
#  diffusion (ap, fh, rl)                   (3*float)
#  label type (ASL)            (imagekey!)  (integer)
#  Contrast Bolus Agent                     (string)
#  Contrast Bolus Route                     (float)
#  Contrast Bolus Volume                    (string)
#  Contrast Bolus Start Time                (string)
#  Contrast Bolus Total Dose                (float)
#  Contrast Bolus Ingredient                (string)
#  Contrast Bolus Ingredient Concentration  (float)
#
# === IMAGE INFORMATION ==========================================================
#  sl ec  dyn ph ty    idx pix scan% rec size                (re)scale              window        angulation              offcentre        thick   gap   info      spacing     echo     dtime   ttime    diff  avg  flip    freq   RR-int  turbo delay b grad cont anis         diffusion       L.ty  contagent   controute  contvolume  conttime  contdose  contingr  contingrconcen

  1   1    1  1 0 2     0  16    78  400  400     0.00000   4.97118  4.43103e-03   546   949   0.00  -2.37   2.42  -72.55  -16.87  128.23  0.700 -0.350 0 2 0 2  0.350  0.350   9.20    0.00     0.00    0.00   1   25.00     0    0    0     1   0.0  1   1    7    0   0.000    0.000    0.000  1  0.000000  0.000000  0.000000
  2   1    1  1 0 2     1  16    78  400  400     0.00000   4.97118  4.43103e-03   569   989   0.00  -2.37   2.42  -72.53  -16.87  127.88  0.700 -0.350 0 2 0 2  0.350  0.350   9.20    0.00     0.00    0.00   1   25.00     0    0    0     1   0.0  1   1    7    0   0.000    0.000    0.000  1  0.000000  0.000000  0.000000
  3   1    1  1 0 2     2  16    78  400  400     0.00000   4.97118  4.43103e-03   581  1010   0.00  -2.37   2.42  -72.52  -16.87  127.53  0.700 -0.350 0 2 0 2  0.350  0.350   9.20    0.00     0.00    0.00   1   25.00     0    0    0     1   0.0  1   1    7    0   0.000    0.000    0.000  1  0.000000  0.000000  0.000000
  4   1    1  1 0 2     3  16    78  400  400     0.00000   4.97118  4.43103e-03   588  1023   0.00  -2.37   2.42  -72.50  -16.87  127.18  0.700 -0.350 0 2 0 2  0.350  0.350   9.20    0.00     0.00    0.00   1   25.00     0    0    0     1   0.0  1   1    7    0   0.000    0.000    0.000  1  0.000000  0.000000  0.000000
  5   1    1  1 0 2     4  16    78  400  400     0.00000   4.97118  4.43103e-03   605  1052   0.00  -2.37   2.42  -72.49  -16.87  126.83  0.700 -0.350 0 2 0 2  0.350  0.350   9.20    0.00     0.00    0.00   1   25.00     0    0    0     1   0.0  1   1    7    0   0.000    0.000    0.000  1  0.000000  0.000000  0.000000
  6   1    1  1 0 2     5  16    78  400  400     0.00000   4.97118  4.43103e-03   608  1057   0.00  -2.37   2.42  -72.48  -16.87  126.48  0.700 -0.350 0 2 0 2  0.350  0.350   9.20    0.00     0.00    0.00   1   25.00     0    0    0     1   0.0  1   1    7    0   0.000    0.000    0.000  1  0.000000  0.000000  0.000000
  7   1    1  1 0 2     6  16    78  400  400     0.00000   4.97118  4.43103e-03   612  1064   0.00  -2.37   2.42  -72.46  -16.87  126.13  0.700 -0.350 0 2 0 2  0.350  0.350   9.20    0.00     0.00    0.00   1   25.00     0    0    0     1   0.0  1   1    7    0   0.000    0.000    0.000  1  0.000000  0.000000  0.000000
  8   1    1  1 0 2     7  16    78  400  400     0.00000   4.97118  4.43103e-03   623  1083   0.00  -2.37   2.42  -72.45  -16.86  125.78  0.700 -0.350 0 2 0 2  0.350  0.350   9.20    0.00     0.00    0.00   1   25.00     0    0    0     1   0.0  1   1    7    0   0.000    0.000    0.000  1  0.000000  0.000000  0.000000
  9   1    1  1 0 2     8  16    78  400  400     0.00000   4.97118  4.43103e-03   620  1078   0.00  -2.37   2.42  -72.43  -16.86  125.43  0.700 -0.350 0 2 0 2  0.350  0.350   9.20    0.00     0.00    0.00   1   25.00     0    0    0     1   0.0  1   1    7    0   0.000    0.000    0.000  1  0.000000  0.000000  0.000000
 10   1    1  1 0 2     9  16    78  400  400     0.00000   4.97118  4.43103e-03   628  1091   0.00  -2.37   2.42  -72.42  -16.86  125.08  0.700 -0.350 0 2 0 2  0.350  0.350   9.20    0.00     0.00    0.00   1   25.00     0    0    0     1   0.0  1   1    7    0   0.000    0.000    0.000  1  0.000000  0.000000  0.000000
 11   1    1  1 0 2    10  16    78  400  400     0.00000   4.97118  4.43103e-03   623  1083   0.00  -2.37   2.42  -72.40  -16.86  124.74  0.700 -0.350 0 2 0 2  0.350  0.350   9.20    0.00     0.00    0.00   1   25.00     0    0    0     1   0.0  1   1    7    0   0.000    0.000    0.000  1  0.000000  0.000000  0.000000
 12   1    1  1 0 2    11  16    78  400  400     0.00000   4.97118  4.43103e-03   626  1089   0.00  -2.37   2.42  -72.39  -16.86  124.39  0.700 -0.350 0 2 0 2  0.350  0.350   9.20    0.00     0.00    0.00   1   25.00     0    0    0     1   0.0  1   1    7    0   0.000    0.000    0.000  1  0.000000  0.000000  0.000000
 13   1    1  1 0 2    12  16    78  400  400     0.00000   4.97118  4.43103e-03   630  1094   0.00  -2.37   2.42  -72.37  -16.86  124.04  0.700 -0.350 0 2 0 2  0.350  0.350   9.20    0.00     0.00    0.00   1   25.00     0    0    0     1   0.0  1   1    7    0   0.000    0.000    0.000  1  0.000000  0.000000  0.000000
 14   1    1  1 0 2    13  16    78  400  400     0.00000   4.97118  4.43103e-03   631  1098   0.00  -2.37   2.42  -72.36  -16.86  123.69  0.700 -0.350 0 2 0 2  0.350  0.350   9.20    0.00     0.00    0.00   1   25.00     0    0    0     1   0.0  1   1    7    0   0.000    0.000    0.000  1  0.000000  0.000000  0.000000
 15   1    1  1 0 2    14  16    78  400  400     0.00000   4.97118  4.43103e-03   632  1098   0.00  -2.37   2.42  -72.35  -16.86  123.34  0.700 -0.350 0 2 0 2  0.350  0.350   9.20    0.00     0.00    0.00   1   25.00     0    0    0     1   0.0  1   1    7    0   0.000    0.000    0.000  1  0.000000  0.000000  0.000000
 16   1    1  1 0 2    15  16    78  400  400     0.00000   4.97118  4.43103e-03   644  1120   0.00  -2.37   2.42  -72.33  -16.86  122.99  0.700 -0.350 0 2 0 2  0.350  0.350   9.20    0.00     0.00    0.00   1   25.00     0    0    0     1   0.0  1   1    7    0   0.000    0.000    0.000  1  0.000000  0.000000  0.000000
 17   1    1  1 0 2    16  16    78  400  400     0.00000   4.97118  4.43103e-03   664  1154   0.00  -2.37   2.42  -72.32  -16.86  122.64  0.700 -0.350 0 2 0 2  0.350  0.350   9.20    0.00     0.00    0.00   1   25.00     0    0    0     1   0.0  1   1    7    0   0.000    0.000    0.000  1  0.000000  0.000000  0.000000
 18   1    1  1 0 2    17  16    78  400  400     0.00000   4.97118  4.43103e-03   670  1165   0.00  -2.37   2.42  -72.30  -16.86  122.29  0.700 -0.350 0 2 0 2  0.350  0.350   9.20    0.00     0.00    0.00   1   25.00     0    0    0     1   0.0  1   1    7    0   0.000    0.000    0.000  1  0.000000  0.000000  0.000000
 19   1    1  1 0 2    18  16    78  400  400     0.00000   4.97118  4.43103e-03   671  1166   0.00  -2.37   2.42  -72.29  -16.86  121.94  0.700 -0.350 0 2 0 2  0.350  0.350   9.20    0.00     0.00    0.00   1   25.00     0    0    0     1   0.0  1   1    7    0   0.000    0.000    0.000  1  0.000000  0.000000  0.000000
 20   1    1  1 0 2    19  16    78  400  400     0.00000   4.97118  4.43103e-03   665  1155   0.00  -2.37   2.42  -72.27  -16.86  121.59  0.700 -0.350 0 2 0 2  0.350  0.350   9.20    0.00     0.00    0.00   1   25.00     0    0    0     1   0.0  1   1    7    0   0.000    0.000    0.000  1  0.000000  0.000000  0.000000
 21   1    1  1 0 2    20  16    78  400  400     0.00000   4.97118  4.43103e-03   669  1164   0.00  -2.37   2.42  -72.26  -16.86  121.24  0.700 -0.350 0 2 0 2  0.350  0.350   9.20    0.00     0.00    0.00   1   25.00     0    0    0     1   0.0  1   1    7    0   0.000    0.000    0.000  1  0.000000  0.000000  0.000000
 22   1    1  1 0 2    21  16    78  400  400     0.00000   4.97118  4.43103e-03   680  1182   0.00  -2.37   2.42  -72.24  -16.86  120.89  0.700 -0.350 0 2 0 2  0.350  0.350   9.20    0.00     0.00    0.00   1   25.00     0    0    0     1   0.0  1   1    7    0   0.000    0.000    0.000  1  0.000000  0.000000  0.000000
 23   1    1  1 0 2    22  16    78  400  400     0.00000   4.97118  4.43103e-03   686  1192   0.00  -2.37   2.42  -72.23  -16.86  120.54  0.700 -0.350 0 2 0 2  0.350  0.350   9.20    0.00     0.00    0.00   1   25.00     0    0    0     1   0.0  1   1    7    0   0.000    0.000    0.000  1  0.000000  0.000000  0.000000
 24   1    1  1 0 2    23  16    78  400  400     0.00000   4.97118  4.43103e-03   685  1190   0.00  -2.37   2.42  -72.22  -16.85  120.19  0.700 -0.350 0 2 0 2  0.350  0.350   9.20    0.00     0.00    0.00   1   25.00     0    0    0     1   0.0  1   1    7    0   0.000    0.000    0.000  1  0.000000  0.000000  0.000000
 25   1    1  1 0 2    24  16    78  400  400     0.00000   4.97118  4.43103e-03   690  1199   0.00  -2.37   2.42  -72.20  -16.85  119.84  0.700 -0.350 0 2 0 2  0.350  0.350   9.20    0.00     0.00    0.00   1   25.00     0    0    0     1   0.0  1   1    7    0   0.000    0.000    0.000  1  0.000000  0.000000  0.000000
 26   1    1  1 0 2    25  16    78  400  400     0.00000   4.97118  4.43103e-03   698  1213   0.00  -2.37   2.42  -72.19  -16.85  119.49  0.700 -0.350 0 2 0 2  0.350  0.350   9.20    0.00     0.00    0.00   1   25.00     0    0    0     1   0.0  1   1    7    0   0.000    0.000    0.000  1  0.000000  0.000000  0.000000
 27   1    1  1 0 2    26  16    78  400  400     0.00000   4.97118  4.43103e-03   701  1218   0.00  -2.37   2.42  -72.17  -16.85  119.14  0.700 -0.350 0 2 0 2  0.350  0.350   9.20    0.00     0.00    0.00   1   25.00     0    0    0     1   0.0  1   1    7    0   0.000    0.000    0.000  1  0.000000  0.000000  0.000000
 28   1    1  1 0 2    27  16    78  400  400     0.00000   4.97118  4.43103e-03   707  1230   0.00  -2.37   2.42  -72.16  -16.85  118.79  0.700 -0.350 0 2 0 2  0.350  0.350   9.20    0.00     0.00    0.00   1   25.00     0    0    0     1   0.0  1   1    7    0   0.000    0.000    0.000  1  0.000000  0.000000  0.000000
 29   1    1  1 0 2    28  16    78  400  400     0.00000   4.97118  4.43103e-03   712  1237   0.00  -2.37   2.42  -72.14  -16.85  118.44  0.700 -0.350 0 2 0 2  0.350  0.350   9.20    0.00     0.00    0.00   1   25.00     0    0    0     1   0.0  1   1    7    0   0.000    0.000    0.000  1  0.000000  0.000000  0.000000
 30   1    1  1 0 2    29  16    78  400  400     0.00000   4.97118  4.43103e-03   722  1255   0.00  -2.37   2.42  -72.13  -16.85  118.09  0.700 -0.350 0 2 0 2  0.350  0.350   9.20    0.00     0.00    0.00   1   25.00     0    0    0     1   0.0  1   1    7    0   0.000    0.000    0.000  1  0.000000  0.000000  0.000000
 31   1    1  1 0 2    30  16    78  400  400     0.00000   4.97118  4.43103e-03   725  1260   0.00  -2.37   2.42  -72.11  -16.85  117.74  0.700 -0.350 0 2 0 2  0.350  0.350   9.20    0.00     0.00    0.00   1   25.00     0    0    0     1   0.0  1   1    7    0   0.000    0.000    0.000  1  0.000000  0.000000  0.000000
 32   1    1  1 0 2    31  16    78  400  400     0.00000   4.97118  4.43103e-03   726  1263   0.00  -2.37   2.42  -72.10  -16.85  117.39  0.700 -0.350 0 2 0 2  0.350  0.350   9.20    0.00     0.00    0.00   1   25.00     0    0    0     1   0.0  1   1    7    0   0.000    0.000    0.000  1  0.000000  0.000000  0.000000
 33   1    1  1 0 2    32  16    78  400  400     0.00000   4.97118  4.43103e-03   740  1286   0.00  -2.37   2.42  -72.09  -16.85  117.04  0.700 -0.350 0 2 0 2  0.350  0.350   9.20    0.00     0.00    0.00   1   25.00     0    0    0     1   0.0  1   1    7    0   0.000    0.000    0.000  1  0.000000  0.000000  0.000000
 34   1    1  1 0 2    33  16    78  400  400     0.00000   4.97118  4.43103e-03   745  1295   0.00  -2.37   2.42  -72.07  -16.85  116.69  0.700 -0.350 0 2 0 2  0.350  0.350   9.20    0.00     0.00    0.00   1   25.00     0    0    0     1   0.0  1   1    7    0   0.000    0.000    0.000  1  0.000000  0.000000  0.000000
 35   1    1  1 0 2    34  16    78  400  400     0.00000   4.97118  4.43103e-03   756  1315   0.00  -2.37   2.42  -72.06  -16.85  116.34  0.700 -0.350 0 2 0 2  0.350  0.350   9.20    0.00     0.00    0.00   1   25.00     0    0    0     1   0.0  1   1    7    0   0.000    0.000    0.000  1  0.000000  0.000000  0.000000
 36   1    1  1 0 2    35  16    78  400  400     0.00000   4.97118  4.43103e-03   771  1340   0.00  -2.37   2.42  -72.04  -16.85  115.99  0.700 -0.350 0 2 0 2  0.350  0.350   9.20    0.00     0.00    0.00   1   25.00     0    0    0     1   0.0  1   1    7    0   0.000    0.000    0.000  1  0.000000  0.000000  0.000000
 37   1    1  1 0 2    36  16    78  400  400     0.00000   4.97118  4.43103e-03   778  1352   0.00  -2.37   2.42  -72.03  -16.85  115.64  0.700 -0.350 0 2 0 2  0.350  0.350   9.20    0.00     0.00    0.00   1   25.00     0    0    0     1   0.0  1   1    7    0   0.000    0.000    0.000  1  0.000000  0.000000  0.000000
 38   1    1  1 0 2    37  16    78  400  400     0.00000   4.97118  4.43103e-03   811  1410   0.00  -2.37   2.42  -72.01  -16.85  115.29  0.700 -0.350 0 2 0 2  0.350  0.350   9.20    0.00     0.00    0.00   1   25.00     0    0    0     1   0.0  1   1    7    0   0.000    0.000    0.000  1  0.000000  0.000000  0.000000
 39   1    1  1 0 2    38  16    78  400  400     0.00000   4.97118  4.43103e-03   858  1492   0.00  -2.37   2.42  -72.00  -16.85  114.94  0.700 -0.350 0 2 0 2  0.350  0.350   9.20    0.00     0.00    0.00   1   25.00     0    0    0     1   0.0  1   1    7    0   0.000    0.000    0.000  1  0.000000  0.000000  0.000000
 40   1    1  1 0 2    39  16    78  400  400     0.00000   4.97118  4.43103e-03   881  1532   0.00  -2.37   2.42  -71.98  -16.85  114.59  0.700 -0.350 0 2 0 2  0.350  0.350   9.20    0.00     0.00    0.00   1   25.00     0    0    0     1   0.0  1   1    7    0   0.000    0.000    0.000  1  0.000000  0.000000  0.000000
 41   1    1  1 0 2    40  16    78  400  400     0.00000   4.97118  4.43103e-03   829  1441   0.00  -2.37   2.42  -71.97  -16.84  114.24  0.700 -0.350 0 2 0 2  0.350  0.350   9.20    0.00     0.00    0.00   1   25.00     0    0    0     1   0.0  1   1    7    0   0.000    0.000    0.000  1  0.000000  0.000000  0.000000
 42   1    1  1 0 2    41  16    78  400  400     0.00000   4.97118  4.43103e-03   790  1373   0.00  -2.37   2.42  -71.95  -16.84  113.89  0.700 -0.350 0 2 0 2  0.350  0.350   9.20    0.00     0.00    0.00   1   25.00     0    0    0     1   0.0  1   1    7    0   0.000    0.000    0.000  1  0.000000  0.000000  0.000000
 43   1    1  1 0 2    42  16    78  400  400     0.00000   4.97118  4.43103e-03   794  1381   0.00  -2.37   2.42  -71.94  -16.84  113.54  0.700 -0.350 0 2 0 2  0.350  0.350   9.20    0.00     0.00    0.00   1   25.00     0    0    0     1   0.0  1   1    7    0   0.000    0.000    0.000  1  0.000000  0.000000  0.000000
 44   1    1  1 0 2    43  16    78  400  400     0.00000   4.97118  4.43103e-03   801  1393   0.00  -2.37   2.42  -71.93  -16.84  113.20  0.700 -0.350 0 2 0 2  0.350  0.350   9.20    0.00     0.00    0.00   1   25.00     0    0    0     1   0.0  1   1    7    0   0.000    0.000    0.000  1  0.000000  0.000000  0.000000
 45   1    1  1 0 2    44  16    78  400  400     0.00000   4.97118  4.43103e-03   790  1373   0.00  -2.37   2.42  -71.91  -16.84  112.85  0.700 -0.350 0 2 0 2  0.350  0.350   9.20    0.00     0.00    0.00   1   25.00     0    0    0     1   0.0  1   1    7    0   0.000    0.000    0.000  1  0.000000  0.000000  0.000000
 46   1    1  1 0 2    45  16    78  400  400     0.00000   4.97118  4.43103e-03   794  1381   0.00  -2.37   2.42  -71.90  -16.84  112.50  0.700 -0.350 0 2 0 2  0.350  0.350   9.20    0.00     0.00    0.00   1   25.00     0    0    0     1   0.0  1   1    7    0   0.000    0.000    0.000  1  0.000000  0.000000  0.000000
 47   1    1  1 0 2    46  16    78  400  400     0.00000   4.97118  4.43103e-03   804  1398   0.00  -2.37   2.42  -71.88  -16.84  112.15  0.700 -0.350 0 2 0 2  0.350  0.350   9.20    0.00     0.00    0.00   1   25.00     0    0    0     1   0.0  1   1    7    0   0.000    0.000    0.000  1  0.000000  0.000000  0.000000
 48   1    1  1 0 2    47  16    78  400  400     0.00000   4.97118  4.43103e-03   847  1472   0.00  -2.37   2.42  -71.87  -16.84  111.80  0.700 -0.350 0 2 0 2  0.350  0.350   9.20    0.00     0.00    0.00   1   25.00     0    0    0     1   0.0  1   1    7    0   0.000    0.000    0.000  1  0.000000  0.000000  0.000000
 49   1    1  1 0 2    48  16    78  400  400     0.00000   4.97118  4.43103e-03   923  1604   0.00  -2.37   2.42  -71.85  -16.84  111.45  0.700 -0.350 0 2 0 2  0.350  0.350   9.20    0.00     0.00    0.00   1   25.00     0    0    0     1   0.0  1   1    7    0   0.000    0.000    0.000  1  0.000000  0.000000  0.000000
 50   1    1  1 0 2    49  16    78  400  400     0.00000   4.97118  4.43103e-03   986  1714   0.00  -2.37   2.42  -71.84  -16.84  111.10  0.700 -0.350 0 2 0 2  0.350  0.350   9.20    0.00     0.00    0.00   1   25.00     0    0    0     1   0.0  1   1    7    0   0.000    0.000    0.000  1  0.000000  0.000000  0.000000
 51   1    1  1 0 2    50  16    78  400  400     0.00000   4.97118  4.43103e-03  1048  1821   0.00  -2.37   2.42  -71.82  -16.84  110.75  0.700 -0.350 0 2 0 2  0.350  0.350   9.20    0.00     0.00    0.00   1   25.00     0    0    0     1   0.0  1   1    7    0   0.000    0.000    0.000  1  0.000000  0.000000  0.000000
 52   1    1  1 0 2    51  16    78  400  400     0.00000   4.97118  4.43103e-03  1050  1826   0.00  -2.37   2.42  -71.81  -16.84  110.40  0.700 -0.350 0 2 0 2  0.350  0.350   9.20    0.00     0.00    0.00   1   25.00     0    0    0     1   0.0  1   1    7    0   0.000    0.000    0.000  1  0.000000  0.000000  0.000000
 53   1    1  1 0 2    52  16    78  400  400     0.00000   4.97118  4.43103e-03   977  1698   0.00  -2.37   2.42  -71.80  -16.84  110.05  0.700 -0.350 0 2 0 2  0.350  0.350   9.20    0.00     0.00    0.00   1   25.00     0    0    0     1   0.0  1   1    7    0   0.000    0.000    0.000  1  0.000000  0.000000  0.000000
 54   1    1  1 0 2    53  16    78  400  400     0.00000   4.97118  4.43103e-03   984  1711   0.00  -2.37   2.42  -71.78  -16.84  109.70  0.700 -0.350 0 2 0 2  0.350  0.350   9.20    0.00     0.00    0.00   1   25.00     0    0    0     1   0.0  1   1    7    0   0.000    0.000    0.000  1  0.000000  0.000000  0.000000
 55   1    1  1 0 2    54  16    78  400  400     0.00000   4.97118  4.43103e-03   975  1694   0.00  -2.37   2.42  -71.77  -16.84  109.35  0.700 -0.350 0 2 0 2  0.350  0.350   9.20    0.00     0.00    0.00   1   25.00     0    0    0     1   0.0  1   1    7    0   0.000    0.000    0.000  1  0.000000  0.000000  0.000000
 56   1    1  1 0 2    55  16    78  400  400     0.00000   4.97118  4.43103e-03   970  1685   0.00  -2.37   2.42  -71.75  -16.84  109.00  0.700 -0.350 0 2 0 2  0.350  0.350   9.20    0.00     0.00    0.00   1   25.00     0    0    0     1   0.0  1   1    7    0   0.000    0.000    0.000  1  0.000000  0.000000  0.000000
 57   1    1  1 0 2    56  16    78  400  400     0.00000   4.97118  4.43103e-03   979  1702   0.00  -2.37   2.42  -71.74  -16.83  108.65  0.700 -0.350 0 2 0 2  0.350  0.350   9.20    0.00     0.00    0.00   1   25.00     0    0    0     1   0.0  1   1    7    0   0.000    0.000    0.000  1  0.000000  0.000000  0.000000
 58   1    1  1 0 2    57  16    78  400  400     0.00000   4.97118  4.43103e-03  1006  1749   0.00  -2.37   2.42  -71.72  -16.83  108.30  0.700 -0.350 0 2 0 2  0.350  0.350   9.20    0.00     0.00    0.00   1   25.00     0    0    0     1   0.0  1   1    7    0   0.000    0.000    0.000  1  0.000000  0.000000  0.000000
 59   1    1  1 0 2    58  16    78  400  400     0.00000   4.97118  4.43103e-03  1006  1748   0.00  -2.37   2.42  -71.71  -16.83  107.95  0.700 -0.350 0 2 0 2  0.350  0.350   9.20    0.00     0.00    0.00   1   25.00     0    0    0     1   0.0  1   1    7    0   0.000    0.000    0.000  1  0.000000  0.000000  0.000000
 60   1    1  1 0 2    59  16    78  400  400     0.00000   4.97118  4.43103e-03   997  1732   0.00  -2.37   2.42  -71.69  -16.83  107.60  0.700 -0.350 0 2 0 2  0.350  0.350   9.20    0.00     0.00    0.00   1   25.00     0    0    0     1   0.0  1   1    7    0   0.000    0.000    0.000  1  0.000000  0.000000  0.000000
 61   1    1  1 0 2    60  16    78  400  400     0.00000   4.97118  4.43103e-03   968  1682   0.00  -2.37   2.42  -71.68  -16.83  107.25  0.700 -0.350 0 2 0 2  0.350  0.350   9.20    0.00     0.00    0.00   1   25.00     0    0    0     1   0.0  1   1    7    0   0.000    0.000    0.000  1  0.000000  0.000000  0.000000
 62   1    1  1 0 2    61  16    78  400  400     0.00000   4.97118  4.43103e-03   963  1673   0.00  -2.37   2.42  -71.67  -16.83  106.90  0.700 -0.350 0 2 0 2  0.350  0.350   9.20    0.00     0.00    0.00   1   25.00     0    0    0     1   0.0  1   1    7    0   0.000    0.000    0.000  1  0.000000  0.000000  0.000000
 63   1    1  1 0 2    62  16    78  400  400     0.00000   4.97118  4.43103e-03   943  1639   0.00  -2.37   2.42  -71.65  -16.83  106.55  0.700 -0.350 0 2 0 2  0.350  0.350   9.20    0.00     0.00    0.00   1   25.00     0    0    0     1   0.0  1   1    7    0   0.000    0.000    0.000  1  0.000000  0.000000  0.000000
 64   1    1  1 0 2    63  16    78  400  400     0.00000   4.97118  4.43103e-03   958  1666   0.00  -2.37   2.42  -71.64  -16.83  106.20  0.700 -0.350 0 2 0 2  0.350  0.350   9.20    0.00     0.00    0.00   1   25.00     0    0    0     1   0.0  1   1    7    0   0.000    0.000    0.000  1  0.000000  0.000000  0.000000
 65   1    1  1 0 2    64  16    78  400  400     0.00000   4.97118  4.43103e-03   970  1686   0.00  -2.37   2.42  -71.62  -16.83  105.85  0.700 -0.350 0 2 0 2  0.350  0.350   9.20    0.00     0.00    0.00   1   25.00     0    0    0     1   0.0  1   1    7    0   0.000    0.000    0.000  1  0.000000  0.000000  0.000000
 66   1    1  1 0 2    65  16    78  400  400     0.00000   4.97118  4.43103e-03   986  1714   0.00  -2.37   2.42  -71.61  -16.83  105.50  0.700 -0.350 0 2 0 2  0.350  0.350   9.20    0.00     0.00    0.00   1   25.00     0    0    0     1   0.0  1   1    7    0   0.000    0.000    0.000  1  0.000000  0.000000  0.000000
 67   1    1  1 0 2    66  16    78  400  400     0.00000   4.97118  4.43103e-03   994  1728   0.00  -2.37   2.42  -71.59  -16.83  105.15  0.700 -0.350 0 2 0 2  0.350  0.350   9.20    0.00     0.00    0.00   1   25.00     0    0    0     1   0.0  1   1    7    0   0.000    0.000    0.000  1  0.000000  0.000000  0.000000
 68   1    1  1 0 2    67  16    78  400  400     0.00000   4.97118  4.43103e-03   967  1681   0.00  -2.37   2.42  -71.58  -16.83  104.80  0.700 -0.350 0 2 0 2  0.350  0.350   9.20    0.00     0.00    0.00   1   25.00     0    0    0     1   0.0  1   1    7    0   0.000    0.000    0.000  1  0.000000  0.000000  0.000000
 69   1    1  1 0 2    68  16    78  400  400     0.00000   4.97118  4.43103e-03   973  1691   0.00  -2.37   2.42  -71.56  -16.83  104.45  0.700 -0.350 0 2 0 2  0.350  0.350   9.20    0.00     0.00    0.00   1   25.00     0    0    0     1   0.0  1   1    7    0   0.000    0.000    0.000  1  0.000000  0.000000  0.000000
 70   1    1  1 0 2    69  16    78  400  400     0.00000   4.97118  4.43103e-03   991  1723   0.00  -2.37   2.42  -71.55  -16.83  104.10  0.700 -0.350 0 2 0 2  0.350  0.350   9.20    0.00     0.00    0.00   1   25.00     0    0    0     1   0.0  1   1    7    0   0.000    0.000    0.000  1  0.000000  0.000000  0.000000
 71   1    1  1 0 2    70  16    78  400  400     0.00000   4.97118  4.43103e-03  1014  1762   0.00  -2.37   2.42  -71.54  -16.83  103.75  0.700 -0.350 0 2 0 2  0.350  0.350   9.20    0.00     0.00    0.00   1   25.00     0    0    0     1   0.0  1   1    7    0   0.000    0.000    0.000  1  0.000000  0.000000  0.000000
 72   1    1  1 0 2    71  16    78  400  400     0.00000   4.97118  4.43103e-03  1022  1777   0.00  -2.37   2.42  -71.52  -16.83  103.40  0.700 -0.350 0 2 0 2  0.350  0.350   9.20    0.00     0.00    0.00   1   25.00     0    0    0     1   0.0  1   1    7    0   0.000    0.000    0.000  1  0.000000  0.000000  0.000000
 73   1    1  1 0 2    72  16    78  400  400     0.00000   4.97118  4.43103e-03  1030  1790   0.00  -2.37   2.42  -71.51  -16.82  103.05  0.700 -0.350 0 2 0 2  0.350  0.350   9.20    0.00     0.00    0.00   1   25.00     0    0    0     1   0.0  1   1    7    0   0.000    0.000    0.000  1  0.000000  0.000000  0.000000
 74   1    1  1 0 2    73  16    78  400  400     0.00000   4.97118  4.43103e-03  1018  1770   0.00  -2.37   2.42  -71.49  -16.82  102.70  0.700 -0.350 0 2 0 2  0.350  0.350   9.20    0.00     0.00    0.00   1   25.00     0    0    0     1   0.0  1   1    7    0   0.000    0.000    0.000  1  0.000000  0.000000  0.000000
 75   1    1  1 0 2    74  16    78  400  400     0.00000   4.97118  4.43103e-03  1024  1780   0.00  -2.37   2.42  -71.48  -16.82  102.35  0.700 -0.350 0 2 0 2  0.350  0.350   9.20    0.00     0.00    0.00   1   25.00     0    0    0     1   0.0  1   1    7    0   0.000    0.000    0.000  1  0.000000  0.000000  0.000000
