# === DATA DESCRIPTION FILE ======================================================
#
# CAUTION - Investigational device.
# Limited by Federal Law to investigational use.
#
# Dataset name: Anthony_Cat_WIP T2Q_Q_12q6.4_2mm
#
# CLINICAL TRYOUT             Research image export tool     V4.2
#
# === GENERAL INFORMATION ========================================================
#
.    Patient name                       :   Anthony Cat
.    Examination name                   :   LT KNEE
.    Protocol name                      :   WIP T2Q_Q_12q6.4_2mm
.    Examination date/time              :   2020.11.30 / 02:11:01
.    Series Type                        :   Image   MRSERIES
.    Acquisition nr                     :   9
.    Reconstruction nr                  :   1
.    Scan Duration [sec]                :   236
.    Max. number of cardiac phases      :   1
.    Max. number of echoes              :   12
.    Max. number of slices/locations    :   46
.    Max. number of dynamics            :   1
.    Max. number of mixes               :   1
.    Patient position                   :   Feet First Supine
.    Preparation direction              :   Anterior-Posterior
.    Technique                          :   TSE
.    Scan resolution  (x, y)            :   232  233
.    Scan mode                          :   MS
.    Repetition time [ms]               :   2000.000  
.    FOV (ap,fh,rl) [mm]                :   121.250  140.000  92.000
.    Water Fat shift [pixels]           :   1.250
.    Angulation midslice(ap,fh,rl)[degr]:   0.000  -2.369  2.420
.    Off Centre midslice(ap,fh,rl) [mm] :   -70.386  -16.777  75.952
.    Flow compensation <0=no 1=yes> ?   :   0
.    Presaturation     <0=no 1=yes> ?   :   0
.    Phase encoding velocity [cm/sec]   :   0.000000  0.000000  0.000000
.    MTC               <0=no 1=yes> ?   :   0
.    SPIR              <0=no 1=yes> ?   :   0
.    EPI factor        <0,1=no EPI>     :   1
.    Dynamic scan      <0=no 1=yes> ?   :   0
.    Diffusion         <0=no 1=yes> ?   :   0
.    Diffusion echo time [ms]           :   0.0000
.    Max. number of diffusion values    :   1
.    Max. number of gradient orients    :   1
.    Number of label types   <0=no ASL> :   0
#
# === PIXEL VALUES =============================================================
#  PV = pixel value in REC file, FP = floating point value, DV = displayed value on console
#  RS = rescale slope,           RI = rescale intercept,    SS = scale slope
#  DV = PV * RS + RI             FP = DV / (RS * SS)
#
# === IMAGE INFORMATION DEFINITION =============================================
#  The rest of this file contains ONE line per image, this line contains the following information:
#
#  slice number                             (integer)
#  echo number                              (integer)
#  dynamic scan number                      (integer)
#  cardiac phase number                     (integer)
#  image_type_mr                            (integer)
#  scanning sequence                        (integer)
#  index in REC file (in images)            (integer)
#  image pixel size (in bits)               (integer)
#  scan percentage                          (integer)
#  recon resolution (x y)                   (2*integer)
#  rescale intercept                        (float)
#  rescale slope                            (float)
#  scale slope                              (float)
#  window center                            (integer)
#  window width                             (integer)
#  image angulation (ap,fh,rl in degrees )  (3*float)
#  image offcentre (ap,fh,rl in mm )        (3*float)
#  slice thickness (in mm )                 (float)
#  slice gap (in mm )                       (float)
#  image_display_orientation                (integer)
#  slice orientation ( TRA/SAG/COR )        (integer)
#  fmri_status_indication                   (integer)
#  image_type_ed_es  (end diast/end syst)   (integer)
#  pixel spacing (x,y) (in mm)              (2*float)
#  echo_time                                (float)
#  dyn_scan_begin_time                      (float)
#  trigger_time                             (float)
#  diffusion_b_factor                       (float)
#  number of averages                       (integer)
#  image_flip_angle (in degrees)            (float)
#  cardiac frequency   (bpm)                (integer)
#  minimum RR-interval (in ms)              (integer)
#  maximum RR-interval (in ms)              (integer)
#  TURBO factor  <0=no turbo>               (integer)
#  Inversion delay (in ms)                  (float)
#  diffusion b value number    (imagekey!)  (integer)
#  gradient orientation number (imagekey!)  (integer)
#  contrast type                            (string)
#  diffusion anisotropy type                (string)
#  diffusion (ap, fh, rl)                   (3*float)
#  label type (ASL)            (imagekey!)  (integer)
#  Contrast Bolus Agent                     (string)
#  Contrast Bolus Route                     (float)
#  Contrast Bolus Volume                    (string)
#  Contrast Bolus Start Time                (string)
#  Contrast Bolus Total Dose                (float)
#  Contrast Bolus Ingredient                (string)
#  Contrast Bolus Ingredient Concentration  (float)
#
# === IMAGE INFORMATION ==========================================================
#  sl ec  dyn ph ty    idx pix scan% rec size                (re)scale              window        angulation              offcentre        thick   gap   info      spacing     echo     dtime   ttime    diff  avg  flip    freq   RR-int  turbo delay b grad cont anis         diffusion       L.ty  contagent   controute  contvolume  conttime  contdose  contingr  contingrconcen

  1   1    1  1 0 1     0  16   100  448  448     0.00000   3.04542  6.67144e-02  1331  2313   0.00  -2.37   2.42  -72.25  -16.86  120.91  2.000  0.000 0 2 0 2  0.313  0.313   6.36    0.00     0.00    0.00   1   90.00     0    0    0    12   0.0  1   1    4    0   0.000    0.000    0.000  1  0.000000  0.000000  0.000000
  2   1    1  1 0 1     1  16   100  448  448     0.00000   3.04542  6.67144e-02  1285  2234   0.00  -2.37   2.42  -72.16  -16.85  118.92  2.000  0.000 0 2 0 2  0.313  0.313   6.36    0.00     0.00    0.00   1   90.00     0    0    0    12   0.0  1   1    4    0   0.000    0.000    0.000  1  0.000000  0.000000  0.000000
  3   1    1  1 0 1     2  16   100  448  448     0.00000   3.04542  6.67144e-02  1187  2063   0.00  -2.37   2.42  -72.08  -16.85  116.92  2.000  0.000 0 2 0 2  0.313  0.313   6.36    0.00     0.00    0.00   1   90.00     0    0    0    12   0.0  1   1    4    0   0.000    0.000    0.000  1  0.000000  0.000000  0.000000
  4   1    1  1 0 1     3  16   100  448  448     0.00000   3.04542  6.67144e-02  1159  2015   0.00  -2.37   2.42  -72.00  -16.85  114.92  2.000  0.000 0 2 0 2  0.313  0.313   6.36    0.00     0.00    0.00   1   90.00     0    0    0    12   0.0  1   1    4    0   0.000    0.000    0.000  1  0.000000  0.000000  0.000000
  5   1    1  1 0 1     4  16   100  448  448     0.00000   3.04542  6.67144e-02  1170  2034   0.00  -2.37   2.42  -71.91  -16.84  112.92  2.000  0.000 0 2 0 2  0.313  0.313   6.36    0.00     0.00    0.00   1   90.00     0    0    0    12   0.0  1   1    4    0   0.000    0.000    0.000  1  0.000000  0.000000  0.000000
  6   1    1  1 0 1     5  16   100  448  448     0.00000   3.04542  6.67144e-02  1170  2033   0.00  -2.37   2.42  -71.83  -16.84  110.92  2.000  0.000 0 2 0 2  0.313  0.313   6.36    0.00     0.00    0.00   1   90.00     0    0    0    12   0.0  1   1    4    0   0.000    0.000    0.000  1  0.000000  0.000000  0.000000
  7   1    1  1 0 1     6  16   100  448  448     0.00000   3.04542  6.67144e-02  1149  1997   0.00  -2.37   2.42  -71.75  -16.84  108.92  2.000  0.000 0 2 0 2  0.313  0.313   6.36    0.00     0.00    0.00   1   90.00     0    0    0    12   0.0  1   1    4    0   0.000    0.000    0.000  1  0.000000  0.000000  0.000000
  8   1    1  1 0 1     7  16   100  448  448     0.00000   3.04542  6.67144e-02  1172  2038   0.00  -2.37   2.42  -71.67  -16.83  106.93  2.000  0.000 0 2 0 2  0.313  0.313   6.36    0.00     0.00    0.00   1   90.00     0    0    0    12   0.0  1   1    4    0   0.000    0.000    0.000  1  0.000000  0.000000  0.000000
  9   1    1  1 0 1     8  16   100  448  448     0.00000   3.04542  6.67144e-02  1204  2093   0.00  -2.37   2.42  -71.58  -16.83  104.93  2.000  0.000 0 2 0 2  0.313  0.313   6.36    0.00     0.00    0.00   1   90.00     0    0    0    12   0.0  1   1    4    0   0.000    0.000    0.000  1  0.000000  0.000000  0.000000
 10   1    1  1 0 1     9  16   100  448  448     0.00000   3.04542  6.67144e-02  1189  2067   0.00  -2.37   2.42  -71.50  -16.82  102.93  2.000  0.000 0 2 0 2  0.313  0.313   6.36    0.00     0.00    0.00   1   90.00     0    0    0    12   0.0  1   1    4    0   0.000    0.000    0.000  1  0.000000  0.000000  0.000000
 11   1    1  1 0 1    10  16   100  448  448     0.00000   3.04542  6.67144e-02  1207  2098   0.00  -2.37   2.42  -71.42  -16.82  100.93  2.000  0.000 0 2 0 2  0.313  0.313   6.36    0.00     0.00    0.00   1   90.00     0    0    0    12   0.0  1   1    4    0   0.000    0.000    0.000  1  0.000000  0.000000  0.000000
 12   1    1  1 0 1    11  16   100  448  448     0.00000   3.04542  6.67144e-02  1167  2029   0.00  -2.37   2.42  -71.34  -16.82   98.93  2.000  0.000 0 2 0 2  0.313  0.313   6.36    0.00     0.00    0.00   1   90.00     0    0    0    12   0.0  1   1    4    0   0.000    0.000    0.000  1  0.000000  0.000000  0.000000
 13   1    1  1 0 1    12  16   100  448  448     0.00000   3.04542  6.67144e-02  1163  2022   0.00  -2.37   2.42  -71.25  -16.81   96.93  2.000  0.000 0 2 0 2  0.313  0.313   6.36    0.00     0.00    0.00   1   90.00     0    0    0    12   0.0  1   1    4    0   0.000    0.000    0.000  1  0.000000  0.000000  0.000000
 14   1    1  1 0 1    13  16   100  448  448     0.00000   3.04542  6.67144e-02  1142  1984   0.00  -2.37   2.42  -71.17  -16.81   94.94  2.000  0.000 0 2 0 2  0.313  0.313   6.36    0.00     0.00    0.00   1   90.00     0    0    0    12   0.0  1   1    4    0   0.000    0.000    0.000  1  0.000000  0.000000  0.000000
 15   1    1  1 0 1    14  16   100  448  448     0.00000   3.04542  6.67144e-02  1150  1999   0.00  -2.37   2.42  -71.09  -16.81   92.94  2.000  0.000 0 2 0 2  0.313  0.313   6.36    0.00     0.00    0.00   1   90.00     0    0    0    12   0.0  1   1    4    0   0.000    0.000    0.000  1  0.000000  0.000000  0.000000
 16   1    1  1 0 1    15  16   100  448  448     0.00000   3.04542  6.67144e-02  1132  1968   0.00  -2.37   2.42  -71.01  -16.80   90.94  2.000  0.000 0 2 0 2  0.313  0.313   6.36    0.00     0.00    0.00   1   90.00     0    0    0    12   0.0  1   1    4    0   0.000    0.000    0.000  1  0.000000  0.000000  0.000000
 17   1    1  1 0 1    16  16   100  448  448     0.00000   3.04542  6.67144e-02  1093  1899   0.00  -2.37   2.42  -70.92  -16.80   88.94  2.000  0.000 0 2 0 2  0.313  0.313   6.36    0.00     0.00    0.00   1   90.00     0    0    0    12   0.0  1   1    4    0   0.000    0.000    0.000  1  0.000000  0.000000  0.000000
 18   1    1  1 0 1    17  16   100  448  448     0.00000   3.04542  6.67144e-02  1073  1865   0.00  -2.37   2.42  -70.84  -16.80   86.94  2.000  0.000 0 2 0 2  0.313  0.313   6.36    0.00     0.00    0.00   1   90.00     0    0    0    12   0.0  1   1    4    0   0.000    0.000    0.000  1  0.000000  0.000000  0.000000
 19   1    1  1 0 1    18  16   100  448  448     0.00000   3.04542  6.67144e-02  1126  1958   0.00  -2.37   2.42  -70.76  -16.79   84.94  2.000  0.000 0 2 0 2  0.313  0.313   6.36    0.00     0.00    0.00   1   90.00     0    0    0    12   0.0  1   1    4    0   0.000    0.000    0.000  1  0.000000  0.000000  0.000000
 20   1    1  1 0 1    19  16   100  448  448     0.00000   3.04542  6.67144e-02  1094  1901   0.00  -2.37   2.42  -70.68  -16.79   82.95  2.000  0.000 0 2 0 2  0.313  0.313   6.36    0.00     0.00    0.00   1   90.00     0    0    0    12   0.0  1   1    4    0   0.000    0.000    0.000  1  0.000000  0.000000  0.000000
 21   1    1  1 0 1    20  16   100  448  448     0.00000   3.04542  6.67144e-02  1078  1874   0.00  -2.37   2.42  -70.59  -16.79   80.95  2.000  0.000 0 2 0 2  0.313  0.313   6.36    0.00     0.00    0.00   1   90.00     0    0    0    12   0.0  1   1    4    0   0.000    0.000    0.000  1  0.000000  0.000000  0.000000
 22   1    1  1 0 1    21  16   100  448  448     0.00000   3.04542  6.67144e-02  1066  1853   0.00  -2.37   2.42  -70.51  -16.78   78.95  2.000  0.000 0 2 0 2  0.313  0.313   6.36    0.00     0.00    0.00   1   90.00     0    0    0    12   0.0  1   1    4    0   0.000    0.000    0.000  1  0.000000  0.000000  0.000000
 23   1    1  1 0 1    22  16   100  448  448     0.00000   3.04542  6.67144e-02  1070  1860   0.00  -2.37   2.42  -70.43  -16.78   76.95  2.000  0.000 0 2 0 2  0.313  0.313   6.36    0.00     0.00    0.00   1   90.00     0    0    0    12   0.0  1   1    4    0   0.000    0.000    0.000  1  0.000000  0.000000  0.000000
 24   1    1  1 0 1    23  16   100  448  448     0.00000   3.04542  6.67144e-02  1070  1860   0.00  -2.37   2.42  -70.34  -16.78   74.95  2.000  0.000 0 2 0 2  0.313  0.313   6.36    0.00     0.00    0.00   1   90.00     0    0    0    12   0.0  1   1    4    0   0.000    0.000    0.000  1  0.000000  0.000000  0.000000
 25   1    1  1 0 1    24  16   100  448  448     0.00000   3.04542  6.67144e-02  1097  1907   0.00  -2.37   2.42  -70.26  -16.77   72.95  2.000  0.000 0 2 0 2  0.313  0.313   6.36    0.00     0.00    0.00   1   90.00     0    0    0    12   0.0  1   1    4    0   0.000    0.000    0.000  1  0.000000  0.000000  0.000000
 26   1    1  1 0 1    25  16   100  448  448     0.00000   3.04542  6.67144e-02  1066  1853   0.00  -2.37   2.42  -70.18  -16.77   70.96  2.000  0.000 0 2 0 2  0.313  0.313   6.36    0.00     0.00    0.00   1   90.00     0    0    0    12   0.0  1   1    4    0   0.000    0.000    0.000  1  0.000000  0.000000  0.000000
 27   1    1  1 0 1    26  16   100  448  448     0.00000   3.04542  6.67144e-02  1074  1867   0.00  -2.37   2.42  -70.10  -16.77   68.96  2.000  0.000 0 2 0 2  0.313  0.313   6.36    0.00     0.00    0.00   1   90.00     0    0    0    12   0.0  1   1    4    0   0.000    0.000    0.000  1  0.000000  0.000000  0.000000
 28   1    1  1 0 1    27  16   100  448  448     0.00000   3.04542  6.67144e-02  1042  1811   0.00  -2.37   2.42  -70.01  -16.76   66.96  2.000  0.000 0 2 0 2  0.313  0.313   6.36    0.00     0.00    0.00   1   90.00     0    0    0    12   0.0  1   1    4    0   0.000    0.000    0.000  1  0.000000  0.000000  0.000000
 29   1    1  1 0 1    28  16   100  448  448     0.00000   3.04542  6.67144e-02  1058  1839   0.00  -2.37   2.42  -69.93  -16.76   64.96  2.000  0.000 0 2 0 2  0.313  0.313   6.36    0.00     0.00    0.00   1   90.00     0    0    0    12   0.0  1   1    4    0   0.000    0.000    0.000  1  0.000000  0.000000  0.000000
 30   1    1  1 0 1    29  16   100  448  448     0.00000   3.04542  6.67144e-02  1052  1829   0.00  -2.37   2.42  -69.85  -16.75   62.96  2.000  0.000 0 2 0 2  0.313  0.313   6.36    0.00     0.00    0.00   1   90.00     0    0    0    12   0.0  1   1    4    0   0.000    0.000    0.000  1  0.000000  0.000000  0.000000
 31   1    1  1 0 1    30  16   100  448  448     0.00000   3.04542  6.67144e-02  1038  1805   0.00  -2.37   2.42  -69.77  -16.75   60.96  2.000  0.000 0 2 0 2  0.313  0.313   6.36    0.00     0.00    0.00   1   90.00     0    0    0    12   0.0  1   1    4    0   0.000    0.000    0.000  1  0.000000  0.000000  0.000000
 32   1    1  1 0 1    31  16   100  448  448     0.00000   3.04542  6.67144e-02  1001  1740   0.00  -2.37   2.42  -69.68  -16.75   58.97  2.000  0.000 0 2 0 2  0.313  0.313   6.36    0.00     0.00    0.00   1   90.00     0    0    0    12   0.0  1   1    4    0   0.000    0.000    0.000  1  0.000000  0.000000  0.000000
 33   1    1  1 0 1    32  16   100  448  448     0.00000   3.04542  6.67144e-02  1023  1779   0.00  -2.37   2.42  -69.60  -16.74   56.97  2.000  0.000 0 2 0 2  0.313  0.313   6.36    0.00     0.00    0.00   1   90.00     0    0    0    12   0.0  1   1    4    0   0.000    0.000    0.000  1  0.000000  0.000000  0.000000
 34   1    1  1 0 1    33  16   100  448  448     0.00000   3.04542  6.67144e-02  1024  1779   0.00  -2.37   2.42  -69.52  -16.74   54.97  2.000  0.000 0 2 0 2  0.313  0.313   6.36    0.00     0.00    0.00   1   90.00     0    0    0    12   0.0  1   1    4    0   0.000    0.000    0.000  1  0.000000  0.000000  0.000000
 35   1    1  1 0 1    34  16   100  448  448     0.00000   3.04542  6.67144e-02  1029  1788   0.00  -2.37   2.42  -69.44  -16.74   52.97  2.000  0.000 0 2 0 2  0.313  0.313   6.36    0.00     0.00    0.00   1   90.00     0    0    0    12   0.0  1   1    4    0   0.000    0.000    0.000  1  0.000000  0.000000  0.000000
 36   1    1  1 0 1    35  16   100  448  448     0.00000   3.04542  6.67144e-02  1015  1764   0.00  -2.37   2.42  -69.35  -16.73   50.97  2.000  0.000 0 2 0 2  0.313  0.313   6.36    0.00     0.00    0.00   1   90.00     0    0    0    12   0.0  1   1    4    0   0.000    0.000    0.000  1  0.000000  0.000000  0.000000
 37   1    1  1 0 1    36  16   100  448  448     0.00000   3.04542  6.67144e-02  1055  1834   0.00  -2.37   2.42  -69.27  -16.73   48.97  2.000  0.000 0 2 0 2  0.313  0.313   6.36    0.00     0.00    0.00   1   90.00     0    0    0    12   0.0  1   1    4    0   0.000    0.000    0.000  1  0.000000  0.000000  0.000000
 38   1    1  1 0 1    37  16   100  448  448     0.00000   3.04542  6.67144e-02  1064  1849   0.00  -2.37   2.42  -69.19  -16.73   46.98  2.000  0.000 0 2 0 2  0.313  0.313   6.36    0.00     0.00    0.00   1   90.00     0    0    0    12   0.0  1   1    4    0   0.000    0.000    0.000  1  0.000000  0.000000  0.000000
 39   1    1  1 0 1    38  16   100  448  448     0.00000   3.04542  6.67144e-02  1095  1903   0.00  -2.37   2.42  -69.11  -16.72   44.98  2.000  0.000 0 2 0 2  0.313  0.313   6.36    0.00     0.00    0.00   1   90.00     0    0    0    12   0.0  1   1    4    0   0.000    0.000    0.000  1  0.000000  0.000000  0.000000
 40   1    1  1 0 1    39  16   100  448  448     0.00000   3.04542  6.67144e-02  1085  1886   0.00  -2.37   2.42  -69.02  -16.72   42.98  2.000  0.000 0 2 0 2  0.313  0.313   6.36    0.00     0.00    0.00   1   90.00     0    0    0    12   0.0  1   1    4    0   0.000    0.000    0.000  1  0.000000  0.000000  0.000000
 41   1    1  1 0 1    40  16   100  448  448     0.00000   3.04542  6.67144e-02  1065  1851   0.00  -2.37   2.42  -68.94  -16.72   40.98  2.000  0.000 0 2 0 2  0.313  0.313   6.36    0.00     0.00    0.00   1   90.00     0    0    0    12   0.0  1   1    4    0   0.000    0.000    0.000  1  0.000000  0.000000  0.000000
 42   1    1  1 0 1    41  16   100  448  448     0.00000   3.04542  6.67144e-02  1033  1796   0.00  -2.37   2.42  -68.86  -16.71   38.98  2.000  0.000 0 2 0 2  0.313  0.313   6.36    0.00     0.00    0.00   1   90.00     0    0    0    12   0.0  1   1    4    0   0.000    0.000    0.000  1  0.000000  0.000000  0.000000
 43   1    1  1 0 1    42  16   100  448  448     0.00000   3.04542  6.67144e-02  1038  1804   0.00  -2.37   2.42  -68.78  -16.71   36.99  2.000  0.000 0 2 0 2  0.313  0.313   6.36    0.00     0.00    0.00   1   90.00     0    0    0    12   0.0  1   1    4    0   0.000    0.000    0.000  1  0.000000  0.000000  0.000000
 44   1    1  1 0 1    43  16   100  448  448     0.00000   3.04542  6.67144e-02  1049  1824   0.00  -2.37   2.42  -68.69  -16.71   34.99  2.000  0.000 0 2 0 2  0.313  0.313   6.36    0.00     0.00    0.00   1   90.00     0    0    0    12   0.0  1   1    4    0   0.000    0.000    0.000  1  0.000000  0.000000  0.000000
 45   1    1  1 0 1    44  16   100  448  448     0.00000   3.04542  6.67144e-02  1087  1890   0.00  -2.37   2.42  -68.61  -16.70   32.99  2.000  0.000 0 2 0 2  0.313  0.313   6.36    0.00     0.00    0.00   1   90.00     0    0    0    12   0.0  1   1    4    0   0.000    0.000    0.000  1  0.000000  0.000000  0.000000
 46   1    1  1 0 1    45  16   100  448  448     0.00000   3.04542  6.67144e-02  1105  1921   0.00  -2.37   2.42  -68.53  -16.70   30.99  2.000  0.000 0 2 0 2  0.313  0.313   6.36    0.00     0.00    0.00   1   90.00     0    0    0    12   0.0  1   1    4    0   0.000    0.000    0.000  1  0.000000  0.000000  0.000000
  1   2    1  1 0 1    46  16   100  448  448     0.00000   3.04542  6.67144e-02  1466  2548   0.00  -2.37   2.42  -72.25  -16.86  120.91  2.000  0.000 0 2 0 2  0.313  0.313  12.72    0.00     0.00    0.00   1   90.00     0    0    0    12   0.0  1   1    4    0   0.000    0.000    0.000  1  0.000000  0.000000  0.000000
  2   2    1  1 0 1    47  16   100  448  448     0.00000   3.04542  6.67144e-02  1437  2498   0.00  -2.37   2.42  -72.16  -16.85  118.92  2.000  0.000 0 2 0 2  0.313  0.313  12.72    0.00     0.00    0.00   1   90.00     0    0    0    12   0.0  1   1    4    0   0.000    0.000    0.000  1  0.000000  0.000000  0.000000
  3   2    1  1 0 1    48  16   100  448  448     0.00000   3.04542  6.67144e-02  1345  2338   0.00  -2.37   2.42  -72.08  -16.85  116.92  2.000  0.000 0 2 0 2  0.313  0.313  12.72    0.00     0.00    0.00   1   90.00     0    0    0    12   0.0  1   1    4    0   0.000    0.000    0.000  1  0.000000  0.000000  0.000000
  4   2    1  1 0 1    49  16   100  448  448     0.00000   3.04542  6.67144e-02  1296  2252   0.00  -2.37   2.42  -72.00  -16.85  114.92  2.000  0.000 0 2 0 2  0.313  0.313  12.72    0.00     0.00    0.00   1   90.00     0    0    0    12   0.0  1   1    4    0   0.000    0.000    0.000  1  0.000000  0.000000  0.000000
  5   2    1  1 0 1    50  16   100  448  448     0.00000   3.04542  6.67144e-02  1311  2279   0.00  -2.37   2.42  -71.91  -16.84  112.92  2.000  0.000 0 2 0 2  0.313  0.313  12.72    0.00     0.00    0.00   1   90.00     0    0    0    12   0.0  1   1    4    0   0.000    0.000    0.000  1  0.000000  0.000000  0.000000
  6   2    1  1 0 1    51  16   100  448  448     0.00000   3.04542  6.67144e-02  1306  2270   0.00  -2.37   2.42  -71.83  -16.84  110.92  2.000  0.000 0 2 0 2  0.313  0.313  12.72    0.00     0.00    0.00   1   90.00     0    0    0    12   0.0  1   1    4    0   0.000    0.000    0.000  1  0.000000  0.000000  0.000000
  7   2    1  1 0 1    52  16   100  448  448     0.00000   3.04542  6.67144e-02  1261  2192   0.00  -2.37   2.42  -71.75  -16.84  108.92  2.000  0.000 0 2 0 2  0.313  0.313  12.72    0.00     0.00    0.00   1   90.00     0    0    0    12   0.0  1   1    4    0   0.000    0.000    0.000  1  0.000000  0.000000  0.000000
  8   2    1  1 0 1    53  16   100  448  448     0.00000   3.04542  6.67144e-02  1298  2256   0.00  -2.37   2.42  -71.67  -16.83  106.93  2.000  0.000 0 2 0 2  0.313  0.313  12.72    0.00     0.00    0.00   1   90.00     0    0    0    12   0.0  1   1    4    0   0.000    0.000    0.000  1  0.000000  0.000000  0.000000
  9   2    1  1 0 1    54  16   100  448  448     0.00000   3.04542  6.67144e-02  1323  2301   0.00  -2.37   2.42  -71.58  -16.83  104.93  2.000  0.000 0 2 0 2  0.313  0.313  12.72    0.00     0.00    0.00   1   90.00     0    0    0    12   0.0  1   1    4    0   0.000    0.000    0.000  1  0.000000  0.000000  0.000000
 10   2    1  1 0 1    55  16   100  448  448     0.00000   3.04542  6.67144e-02  1323  2299   0.00  -2.37   2.42  -71.50  -16.82  102.93  2.000  0.000 0 2 0 2  0.313  0.313  12.72    0.00     0.00    0.00   1   90.00     0    0    0    12   0.0  1   1    4    0   0.000    0.000    0.000  1  0.000000  0.000000  0.000000
 11   2    1  1 0 1    56  16   100  448  448     0.00000   3.04542  6.67144e-02  1333  2317   0.00  -2.37   2.42  -71.42  -16.82  100.93  2.000  0.000 0 2 0 2  0.313  0.313  12.72    0.00     0.00    0.00   1   90.00     0    0    0    12   0.0  1   1    4    0   0.000    0.000    0.000  1  0.000000  0.000000  0.000000
 12   2    1  1 0 1    57  16   100  448  448     0.00000   3.04542  6.67144e-02  1298  2256   0.00  -2.37   2.42  -71.34  -16.82   98.93  2.000  0.000 0 2 0 2  0.313  0.313  12.72    0.00     0.00    0.00   1   90.00     0    0    0    12   0.0  1   1    4    0   0.000    0.000    0.000  1  0.000000  0.000000  0.000000
 13   2    1  1 0 1    58  16   100  448  448     0.00000   3.04542  6.67144e-02  1305  2269   0.00  -2.37   2.42  -71.25  -16.81   96.93  2.000  0.000 0 2 0 2  0.313  0.313  12.72    0.00     0.00    0.00   1   90.00     0    0    0    12   0.0  1   1    4    0   0.000    0.000    0.000  1  0.000000  0.000000  0.000000
 14   2    1  1 0 1    59  16   100  448  448     0.00000   3.04542  6.67144e-02  1274  2214   0.00  -2.37   2.42  -71.17  -16.81   94.94  2.000  0.000 0 2 0 2  0.313  0.313  12.72    0.00     0.00    0.00   1   90.00     0    0    0    12   0.0  1   1    4    0   0.000    0.000    0.000  1  0.000000  0.000000  0.000000
 15   2    1  1 0 1    60  16   100  448  448     0.00000   3.04542  6.67144e-02  1268  2203   0.00  -2.37   2.42  -71.09  -16.81   92.94  2.000  0.000 0 2 0 2  0.313  0.313  12.72    0.00     0.00    0.00   1   90.00     0    0    0    12   0.0  1   1    4    0   0.000    0.000    0.000  1  0.000000  0.000000  0.000000
 16   2    1  1 0 1    61  16   100  448  448     0.00000   3.04542  6.67144e-02  1252  2177   0.00  -2.37   2.42  -71.01  -16.80   90.94  2.000  0.000 0 2 0 2  0.313  0.313  12.72    0.00     0.00    0.00   1   90.00     0    0    0    12   0.0  1   1    4    0   0.000    0.000    0.000  1  0.000000  0.000000  0.000000
 17   2    1  1 0 1    62  16   100  448  448     0.00000   3.04542  6.67144e-02  1225  2129   0.00  -2.37   2.42  -70.92  -16.80   88.94  2.000  0.000 0 2 0 2  0.313  0.313  12.72    0.00     0.00    0.00   1   90.00     0    0    0    12   0.0  1   1    4    0   0.000    0.000    0.000  1  0.000000  0.000000  0.000000
 18   2    1  1 0 1    63  16   100  448  448     0.00000   3.04542  6.67144e-02  1197  2081   0.00  -2.37   2.42  -70.84  -16.80   86.94  2.000  0.000 0 2 0 2  0.313  0.313  12.72    0.00     0.00    0.00   1   90.00     0    0    0    12   0.0  1   1    4    0   0.000    0.000    0.000  1  0.000000  0.000000  0.000000
 19   2    1  1 0 1    64  16   100  448  448     0.00000   3.04542  6.67144e-02  1220  2121   0.00  -2.37   2.42  -70.76  -16.79   84.94  2.000  0.000 0 2 0 2  0.313  0.313  12.72    0.00     0.00    0.00   1   90.00     0    0    0    12   0.0  1   1    4    0   0.000    0.000    0.000  1  0.000000  0.000000  0.000000
 20   2    1  1 0 1    65  16   100  448  448     0.00000   3.04542  6.67144e-02  1195  2077   0.00  -2.37   2.42  -70.68  -16.79   82.95  2.000  0.000 0 2 0 2  0.313  0.313  12.72    0.00     0.00    0.00   1   90.00     0    0    0    12   0.0  1   1    4    0   0.000    0.000    0.000  1  0.000000  0.000000  0.000000
 21   2    1  1 0 1    66  16   100  448  448     0.00000   3.04542  6.67144e-02  1193  2074   0.00  -2.37   2.42  -70.59  -16.79   80.95  2.000  0.000 0 2 0 2  0.313  0.313  12.72    0.00     0.00    0.00   1   90.00     0    0    0    12   0.0  1   1    4    0   0.000    0.000    0.000  1  0.000000  0.000000  0.000000
 22   2    1  1 0 1    67  16   100  448  448     0.00000   3.04542  6.67144e-02  1191  2071   0.00  -2.37   2.42  -70.51  -16.78   78.95  2.000  0.000 0 2 0 2  0.313  0.313  12.72    0.00     0.00    0.00   1   90.00     0    0    0    12   0.0  1   1    4    0   0.000    0.000    0.000  1  0.000000  0.000000  0.000000
 23   2    1  1 0 1    68  16   100  448  448     0.00000   3.04542  6.67144e-02  1193  2073   0.00  -2.37   2.42  -70.43  -16.78   76.95  2.000  0.000 0 2 0 2  0.313  0.313  12.72    0.00     0.00    0.00   1   90.00     0    0    0    12   0.0  1   1    4    0   0.000    0.000    0.000  1  0.000000  0.000000  0.000000
 24   2    1  1 0 1    69  16   100  448  448     0.00000   3.04542  6.67144e-02  1185  2061   0.00  -2.37   2.42  -70.34  -16.78   74.95  2.000  0.000 0 2 0 2  0.313  0.313  12.72    0.00     0.00    0.00   1   90.00     0    0    0    12   0.0  1   1    4    0   0.000    0.000    0.000  1  0.000000  0.000000  0.000000
 25   2    1  1 0 1    70  16   100  448  448     0.00000   3.04542  6.67144e-02  1212  2107   0.00  -2.37   2.42  -70.26  -16.77   72.95  2.000  0.000 0 2 0 2  0.313  0.313  12.72    0.00     0.00    0.00   1   90.00     0    0    0    12   0.0  1   1    4    0   0.000    0.000    0.000  1  0.000000  0.000000  0.000000
 26   2    1  1 0 1    71  16   100  448  448     0.00000   3.04542  6.67144e-02  1187  2064   0.00  -2.37   2.42  -70.18  -16.77   70.96  2.000  0.000 0 2 0 2  0.313  0.313  12.72    0.00     0.00    0.00   1   90.00     0    0    0    12   0.0  1   1    4    0   0.000    0.000    0.000  1  0.000000  0.000000  0.000000
 27   2    1  1 0 1    72  16   100  448  448     0.00000   3.04542  6.67144e-02  1184  2058   0.00  -2.37   2.42  -70.10  -16.77   68.96  2.000  0.000 0 2 0 2  0.313  0.313  12.72    0.00     0.00    0.00   1   90.00     0    0    0    12   0.0  1   1    4    0   0.000    0.000    0.000  1  0.000000  0.000000  0.000000
 28   2    1  1 0 1    73  16   100  448  448     0.00000   3.04542  6.67144e-02  1150  1999   0.00  -2.37   2.42  -70.01  -16.76   66.96  2.000  0.000 0 2 0 2  0.313  0.313  12.72    0.00     0.00    0.00   1   90.00     0    0    0    12   0.0  1   1    4    0   0.000    0.000    0.000  1  0.000000  0.000000  0.000000
 29   2    1  1 0 1    74  16   100  448  448     0.00000   3.04542  6.67144e-02  1155  2008   0.00  -2.37   2.42  -69.93  -16.76   64.96  2.000  0.000 0 2 0 2  0.313  0.313  12.72    0.00     0.00    0.00   1   90.00     0    0    0    12   0.0  1   1    4    0   0.000    0.000    0.000  1  0.000000  0.000000  0.000000
