# === DATA DESCRIPTION FILE ======================================================
#
# CAUTION - Investigational device.
# Limited by Federal Law to investigational use.
#
# Dataset name: Jane_Weston_1295_WIP_3D_WATSf_ISO
#
# CLINICAL TRYOUT             Research image export tool     V4.2
#
# === GENERAL INFORMATION ========================================================
#
.    Patient name                       :   Jane Weston
.    Examination name                   :   LEFT KNEE
.    Protocol name                      :   WIP T2Q_Q_12q6.4_2mm
.    Examination date/time              :   2020.07.12 / 10:10:10
.    Series Type                        :   Image   MRSERIES
.    Acquisition nr                     :   1
.    Reconstruction nr                  :   1
.    Scan Duration [sec]                :   236
.    Max. number of cardiac phases      :   1
.    Max. number of echoes              :   12
.    Max. number of slices/locations    :   46
.    Max. number of dynamics            :   1
.    Max. number of mixes               :   1
.    Patient position                   :   Feet First Supine
.    Preparation direction              :   Anterior-Posterior
.    Technique                          :   TSE
.    Scan resolution  (x, y)            :   232  233
.    Scan mode                          :   MS
.    Repetition time [ms]               :   2000.000  
.    FOV (ap,fh,rl) [mm]                :   121.250  140.000  92.000
.    Water Fat shift [pixels]           :   1.250
.    Angulation midslice(ap,fh,rl)[degr]:   -0.587  -7.450  4.492
.    Off Centre midslice(ap,fh,rl) [mm] :   -74.079  -3.005  94.485
.    Flow compensation <0=no 1=yes> ?   :   0
.    Presaturation     <0=no 1=yes> ?   :   0
.    Phase encoding velocity [cm/sec]   :   0.000000  0.000000  0.000000
.    MTC               <0=no 1=yes> ?   :   0
.    SPIR              <0=no 1=yes> ?   :   0
.    EPI factor        <0,1=no EPI>     :   1
.    Dynamic scan      <0=no 1=yes> ?   :   0
.    Diffusion         <0=no 1=yes> ?   :   0
.    Diffusion echo time [ms]           :   0.0000
.    Max. number of diffusion values    :   1
.    Max. number of gradient orients    :   1
.    Number of label types   <0=no ASL> :   0
#
# === PIXEL VALUES =============================================================
#  PV = pixel value in REC file, FP = floating point value, DV = displayed value on console
#  RS = rescale slope,           RI = rescale intercept,    SS = scale slope
#  DV = PV * RS + RI             FP = DV / (RS * SS)
#
# === IMAGE INFORMATION DEFINITION =============================================
#  The rest of this file contains ONE line per image, this line contains the following information:
#
#  slice number                             (integer)
#  echo number                              (integer)
#  dynamic scan number                      (integer)
#  cardiac phase number                     (integer)
#  image_type_mr                            (integer)
#  scanning sequence                        (integer)
#  index in REC file (in images)            (integer)
#  image pixel size (in bits)               (integer)
#  scan percentage                          (integer)
#  recon resolution (x y)                   (2*integer)
#  rescale intercept                        (float)
#  rescale slope                            (float)
#  scale slope                              (float)
#  window center                            (integer)
#  window width                             (integer)
#  image angulation (ap,fh,rl in degrees )  (3*float)
#  image offcentre (ap,fh,rl in mm )        (3*float)
#  slice thickness (in mm )                 (float)
#  slice gap (in mm )                       (float)
#  image_display_orientation                (integer)
#  slice orientation ( TRA/SAG/COR )        (integer)
#  fmri_status_indication                   (integer)
#  image_type_ed_es  (end diast/end syst)   (integer)
#  pixel spacing (x,y) (in mm)              (2*float)
#  echo_time                                (float)
#  dyn_scan_begin_time                      (float)
#  trigger_time                             (float)
#  diffusion_b_factor                       (float)
#  number of averages                       (integer)
#  image_flip_angle (in degrees)            (float)
#  cardiac frequency   (bpm)                (integer)
#  minimum RR-interval (in ms)              (integer)
#  maximum RR-interval (in ms)              (integer)
#  TURBO factor  <0=no turbo>               (integer)
#  Inversion delay (in ms)                  (float)
#  diffusion b value number    (imagekey!)  (integer)
#  gradient orientation number (imagekey!)  (integer)
#  contrast type                            (string)
#  diffusion anisotropy type                (string)
#  diffusion (ap, fh, rl)                   (3*float)
#  label type (ASL)            (imagekey!)  (integer)
#  Contrast Bolus Agent                     (string)
#  Contrast Bolus Route                     (float)
#  Contrast Bolus Volume                    (string)
#  Contrast Bolus Start Time                (string)
#  Contrast Bolus Total Dose                (float)
#  Contrast Bolus Ingredient                (string)
#  Contrast Bolus Ingredient Concentration  (float)
#
# === IMAGE INFORMATION ==========================================================
#  sl ec  dyn ph ty    idx pix scan% rec size                (re)scale              window        angulation              offcentre        thick   gap   info      spacing     echo     dtime   ttime    diff  avg  flip    freq   RR-int  turbo delay b grad cont anis         diffusion       L.ty  contagent   controute  contvolume  conttime  contdose  contingr  contingrconcen

  1   1    1  1 0 1     0  16   100  448  448     0.00000   3.11136  6.58334e-02  1386  2410  -0.59  -7.45   4.49  -79.93   -3.01  139.10  2.000  0.000 0 2 0 2  0.313  0.313   6.36    0.00     0.00    0.00   1   90.00     0    0    0    12   0.0  1   1    4    0   0.000    0.000    0.000  1  0.000000  0.000000  0.000000
  2   1    1  1 0 1     1  16   100  448  448     0.00000   3.11136  6.58334e-02  1321  2296  -0.59  -7.45   4.49  -79.67   -3.01  137.12  2.000  0.000 0 2 0 2  0.313  0.313   6.36    0.00     0.00    0.00   1   90.00     0    0    0    12   0.0  1   1    4    0   0.000    0.000    0.000  1  0.000000  0.000000  0.000000
  3   1    1  1 0 1     2  16   100  448  448     0.00000   3.11136  6.58334e-02  1275  2216  -0.59  -7.45   4.49  -79.41   -3.01  135.14  2.000  0.000 0 2 0 2  0.313  0.313   6.36    0.00     0.00    0.00   1   90.00     0    0    0    12   0.0  1   1    4    0   0.000    0.000    0.000  1  0.000000  0.000000  0.000000
  4   1    1  1 0 1     3  16   100  448  448     0.00000   3.11136  6.58334e-02  1221  2123  -0.59  -7.45   4.49  -79.15   -3.01  133.15  2.000  0.000 0 2 0 2  0.313  0.313   6.36    0.00     0.00    0.00   1   90.00     0    0    0    12   0.0  1   1    4    0   0.000    0.000    0.000  1  0.000000  0.000000  0.000000
  5   1    1  1 0 1     4  16   100  448  448     0.00000   3.11136  6.58334e-02  1216  2114  -0.59  -7.45   4.49  -78.89   -3.01  131.17  2.000  0.000 0 2 0 2  0.313  0.313   6.36    0.00     0.00    0.00   1   90.00     0    0    0    12   0.0  1   1    4    0   0.000    0.000    0.000  1  0.000000  0.000000  0.000000
  6   1    1  1 0 1     5  16   100  448  448     0.00000   3.11136  6.58334e-02  1156  2009  -0.59  -7.45   4.49  -78.63   -3.01  129.19  2.000  0.000 0 2 0 2  0.313  0.313   6.36    0.00     0.00    0.00   1   90.00     0    0    0    12   0.0  1   1    4    0   0.000    0.000    0.000  1  0.000000  0.000000  0.000000
  7   1    1  1 0 1     6  16   100  448  448     0.00000   3.11136  6.58334e-02  1030  1790  -0.59  -7.45   4.49  -78.37   -3.01  127.20  2.000  0.000 0 2 0 2  0.313  0.313   6.36    0.00     0.00    0.00   1   90.00     0    0    0    12   0.0  1   1    4    0   0.000    0.000    0.000  1  0.000000  0.000000  0.000000
  8   1    1  1 0 1     7  16   100  448  448     0.00000   3.11136  6.58334e-02   980  1703  -0.59  -7.45   4.49  -78.11   -3.01  125.22  2.000  0.000 0 2 0 2  0.313  0.313   6.36    0.00     0.00    0.00   1   90.00     0    0    0    12   0.0  1   1    4    0   0.000    0.000    0.000  1  0.000000  0.000000  0.000000
  9   1    1  1 0 1     8  16   100  448  448     0.00000   3.11136  6.58334e-02   999  1736  -0.59  -7.45   4.49  -77.85   -3.01  123.24  2.000  0.000 0 2 0 2  0.313  0.313   6.36    0.00     0.00    0.00   1   90.00     0    0    0    12   0.0  1   1    4    0   0.000    0.000    0.000  1  0.000000  0.000000  0.000000
 10   1    1  1 0 1     9  16   100  448  448     0.00000   3.11136  6.58334e-02   979  1703  -0.59  -7.45   4.49  -77.59   -3.01  121.26  2.000  0.000 0 2 0 2  0.313  0.313   6.36    0.00     0.00    0.00   1   90.00     0    0    0    12   0.0  1   1    4    0   0.000    0.000    0.000  1  0.000000  0.000000  0.000000
 11   1    1  1 0 1    10  16   100  448  448     0.00000   3.11136  6.58334e-02   979  1702  -0.59  -7.45   4.49  -77.33   -3.01  119.27  2.000  0.000 0 2 0 2  0.313  0.313   6.36    0.00     0.00    0.00   1   90.00     0    0    0    12   0.0  1   1    4    0   0.000    0.000    0.000  1  0.000000  0.000000  0.000000
 12   1    1  1 0 1    11  16   100  448  448     0.00000   3.11136  6.58334e-02   992  1724  -0.59  -7.45   4.49  -77.07   -3.01  117.29  2.000  0.000 0 2 0 2  0.313  0.313   6.36    0.00     0.00    0.00   1   90.00     0    0    0    12   0.0  1   1    4    0   0.000    0.000    0.000  1  0.000000  0.000000  0.000000
 13   1    1  1 0 1    12  16   100  448  448     0.00000   3.11136  6.58334e-02  1063  1848  -0.59  -7.45   4.49  -76.81   -3.01  115.31  2.000  0.000 0 2 0 2  0.313  0.313   6.36    0.00     0.00    0.00   1   90.00     0    0    0    12   0.0  1   1    4    0   0.000    0.000    0.000  1  0.000000  0.000000  0.000000
 14   1    1  1 0 1    13  16   100  448  448     0.00000   3.11136  6.58334e-02  1085  1886  -0.59  -7.45   4.49  -76.55   -3.01  113.32  2.000  0.000 0 2 0 2  0.313  0.313   6.36    0.00     0.00    0.00   1   90.00     0    0    0    12   0.0  1   1    4    0   0.000    0.000    0.000  1  0.000000  0.000000  0.000000
 15   1    1  1 0 1    14  16   100  448  448     0.00000   3.11136  6.58334e-02  1116  1940  -0.59  -7.45   4.49  -76.29   -3.01  111.34  2.000  0.000 0 2 0 2  0.313  0.313   6.36    0.00     0.00    0.00   1   90.00     0    0    0    12   0.0  1   1    4    0   0.000    0.000    0.000  1  0.000000  0.000000  0.000000
 16   1    1  1 0 1    15  16   100  448  448     0.00000   3.11136  6.58334e-02  1102  1916  -0.59  -7.45   4.49  -76.03   -3.01  109.36  2.000  0.000 0 2 0 2  0.313  0.313   6.36    0.00     0.00    0.00   1   90.00     0    0    0    12   0.0  1   1    4    0   0.000    0.000    0.000  1  0.000000  0.000000  0.000000
 17   1    1  1 0 1    16  16   100  448  448     0.00000   3.11136  6.58334e-02  1087  1890  -0.59  -7.45   4.49  -75.77   -3.01  107.37  2.000  0.000 0 2 0 2  0.313  0.313   6.36    0.00     0.00    0.00   1   90.00     0    0    0    12   0.0  1   1    4    0   0.000    0.000    0.000  1  0.000000  0.000000  0.000000
 18   1    1  1 0 1    17  16   100  448  448     0.00000   3.11136  6.58334e-02  1085  1885  -0.59  -7.45   4.49  -75.51   -3.01  105.39  2.000  0.000 0 2 0 2  0.313  0.313   6.36    0.00     0.00    0.00   1   90.00     0    0    0    12   0.0  1   1    4    0   0.000    0.000    0.000  1  0.000000  0.000000  0.000000
 19   1    1  1 0 1    18  16   100  448  448     0.00000   3.11136  6.58334e-02  1072  1863  -0.59  -7.45   4.49  -75.25   -3.01  103.41  2.000  0.000 0 2 0 2  0.313  0.313   6.36    0.00     0.00    0.00   1   90.00     0    0    0    12   0.0  1   1    4    0   0.000    0.000    0.000  1  0.000000  0.000000  0.000000
 20   1    1  1 0 1    19  16   100  448  448     0.00000   3.11136  6.58334e-02  1054  1832  -0.59  -7.45   4.49  -74.99   -3.01  101.43  2.000  0.000 0 2 0 2  0.313  0.313   6.36    0.00     0.00    0.00   1   90.00     0    0    0    12   0.0  1   1    4    0   0.000    0.000    0.000  1  0.000000  0.000000  0.000000
 21   1    1  1 0 1    20  16   100  448  448     0.00000   3.11136  6.58334e-02  1102  1916  -0.59  -7.45   4.49  -74.73   -3.01   99.44  2.000  0.000 0 2 0 2  0.313  0.313   6.36    0.00     0.00    0.00   1   90.00     0    0    0    12   0.0  1   1    4    0   0.000    0.000    0.000  1  0.000000  0.000000  0.000000
 22   1    1  1 0 1    21  16   100  448  448     0.00000   3.11136  6.58334e-02  1076  1870  -0.59  -7.45   4.49  -74.47   -3.01   97.46  2.000  0.000 0 2 0 2  0.313  0.313   6.36    0.00     0.00    0.00   1   90.00     0    0    0    12   0.0  1   1    4    0   0.000    0.000    0.000  1  0.000000  0.000000  0.000000
 23   1    1  1 0 1    22  16   100  448  448     0.00000   3.11136  6.58334e-02  1074  1867  -0.59  -7.45   4.49  -74.21   -3.01   95.48  2.000  0.000 0 2 0 2  0.313  0.313   6.36    0.00     0.00    0.00   1   90.00     0    0    0    12   0.0  1   1    4    0   0.000    0.000    0.000  1  0.000000  0.000000  0.000000
 24   1    1  1 0 1    23  16   100  448  448     0.00000   3.11136  6.58334e-02  1070  1860  -0.59  -7.45   4.49  -73.95   -3.01   93.49  2.000  0.000 0 2 0 2  0.313  0.313   6.36    0.00     0.00    0.00   1   90.00     0    0    0    12   0.0  1   1    4    0   0.000    0.000    0.000  1  0.000000  0.000000  0.000000
 25   1    1  1 0 1    24  16   100  448  448     0.00000   3.11136  6.58334e-02  1074  1867  -0.59  -7.45   4.49  -73.69   -3.01   91.51  2.000  0.000 0 2 0 2  0.313  0.313   6.36    0.00     0.00    0.00   1   90.00     0    0    0    12   0.0  1   1    4    0   0.000    0.000    0.000  1  0.000000  0.000000  0.000000
 26   1    1  1 0 1    25  16   100  448  448     0.00000   3.11136  6.58334e-02  1058  1839  -0.59  -7.45   4.49  -73.43   -3.00   89.53  2.000  0.000 0 2 0 2  0.313  0.313   6.36    0.00     0.00    0.00   1   90.00     0    0    0    12   0.0  1   1    4    0   0.000    0.000    0.000  1  0.000000  0.000000  0.000000
 27   1    1  1 0 1    26  16   100  448  448     0.00000   3.11136  6.58334e-02  1034  1797  -0.59  -7.45   4.49  -73.17   -3.00   87.54  2.000  0.000 0 2 0 2  0.313  0.313   6.36    0.00     0.00    0.00   1   90.00     0    0    0    12   0.0  1   1    4    0   0.000    0.000    0.000  1  0.000000  0.000000  0.000000
 28   1    1  1 0 1    27  16   100  448  448     0.00000   3.11136  6.58334e-02  1035  1799  -0.59  -7.45   4.49  -72.91   -3.00   85.56  2.000  0.000 0 2 0 2  0.313  0.313   6.36    0.00     0.00    0.00   1   90.00     0    0    0    12   0.0  1   1    4    0   0.000    0.000    0.000  1  0.000000  0.000000  0.000000
 29   1    1  1 0 1    28  16   100  448  448     0.00000   3.11136  6.58334e-02  1003  1743  -0.59  -7.45   4.49  -72.65   -3.00   83.58  2.000  0.000 0 2 0 2  0.313  0.313   6.36    0.00     0.00    0.00   1   90.00     0    0    0    12   0.0  1   1    4    0   0.000    0.000    0.000  1  0.000000  0.000000  0.000000
 30   1    1  1 0 1    29  16   100  448  448     0.00000   3.11136  6.58334e-02  1007  1750  -0.59  -7.45   4.49  -72.39   -3.00   81.60  2.000  0.000 0 2 0 2  0.313  0.313   6.36    0.00     0.00    0.00   1   90.00     0    0    0    12   0.0  1   1    4    0   0.000    0.000    0.000  1  0.000000  0.000000  0.000000
 31   1    1  1 0 1    30  16   100  448  448     0.00000   3.11136  6.58334e-02   970  1687  -0.59  -7.45   4.49  -72.13   -3.00   79.61  2.000  0.000 0 2 0 2  0.313  0.313   6.36    0.00     0.00    0.00   1   90.00     0    0    0    12   0.0  1   1    4    0   0.000    0.000    0.000  1  0.000000  0.000000  0.000000
 32   1    1  1 0 1    31  16   100  448  448     0.00000   3.11136  6.58334e-02   965  1678  -0.59  -7.45   4.49  -71.87   -3.00   77.63  2.000  0.000 0 2 0 2  0.313  0.313   6.36    0.00     0.00    0.00   1   90.00     0    0    0    12   0.0  1   1    4    0   0.000    0.000    0.000  1  0.000000  0.000000  0.000000
 33   1    1  1 0 1    32  16   100  448  448     0.00000   3.11136  6.58334e-02   961  1670  -0.59  -7.45   4.49  -71.61   -3.00   75.65  2.000  0.000 0 2 0 2  0.313  0.313   6.36    0.00     0.00    0.00   1   90.00     0    0    0    12   0.0  1   1    4    0   0.000    0.000    0.000  1  0.000000  0.000000  0.000000
 34   1    1  1 0 1    33  16   100  448  448     0.00000   3.11136  6.58334e-02   959  1666  -0.59  -7.45   4.49  -71.35   -3.00   73.66  2.000  0.000 0 2 0 2  0.313  0.313   6.36    0.00     0.00    0.00   1   90.00     0    0    0    12   0.0  1   1    4    0   0.000    0.000    0.000  1  0.000000  0.000000  0.000000
 35   1    1  1 0 1    34  16   100  448  448     0.00000   3.11136  6.58334e-02   950  1651  -0.59  -7.45   4.49  -71.09   -3.00   71.68  2.000  0.000 0 2 0 2  0.313  0.313   6.36    0.00     0.00    0.00   1   90.00     0    0    0    12   0.0  1   1    4    0   0.000    0.000    0.000  1  0.000000  0.000000  0.000000
 36   1    1  1 0 1    35  16   100  448  448     0.00000   3.11136  6.58334e-02   951  1653  -0.59  -7.45   4.49  -70.83   -3.00   69.70  2.000  0.000 0 2 0 2  0.313  0.313   6.36    0.00     0.00    0.00   1   90.00     0    0    0    12   0.0  1   1    4    0   0.000    0.000    0.000  1  0.000000  0.000000  0.000000
 37   1    1  1 0 1    36  16   100  448  448     0.00000   3.11136  6.58334e-02   968  1683  -0.59  -7.45   4.49  -70.57   -3.00   67.71  2.000  0.000 0 2 0 2  0.313  0.313   6.36    0.00     0.00    0.00   1   90.00     0    0    0    12   0.0  1   1    4    0   0.000    0.000    0.000  1  0.000000  0.000000  0.000000
 38   1    1  1 0 1    37  16   100  448  448     0.00000   3.11136  6.58334e-02   964  1675  -0.59  -7.45   4.49  -70.31   -3.00   65.73  2.000  0.000 0 2 0 2  0.313  0.313   6.36    0.00     0.00    0.00   1   90.00     0    0    0    12   0.0  1   1    4    0   0.000    0.000    0.000  1  0.000000  0.000000  0.000000
 39   1    1  1 0 1    38  16   100  448  448     0.00000   3.11136  6.58334e-02   975  1694  -0.59  -7.45   4.49  -70.05   -3.00   63.75  2.000  0.000 0 2 0 2  0.313  0.313   6.36    0.00     0.00    0.00   1   90.00     0    0    0    12   0.0  1   1    4    0   0.000    0.000    0.000  1  0.000000  0.000000  0.000000
 40   1    1  1 0 1    39  16   100  448  448     0.00000   3.11136  6.58334e-02   979  1702  -0.59  -7.45   4.49  -69.79   -3.00   61.77  2.000  0.000 0 2 0 2  0.313  0.313   6.36    0.00     0.00    0.00   1   90.00     0    0    0    12   0.0  1   1    4    0   0.000    0.000    0.000  1  0.000000  0.000000  0.000000
 41   1    1  1 0 1    40  16   100  448  448     0.00000   3.11136  6.58334e-02   996  1731  -0.59  -7.45   4.49  -69.53   -3.00   59.78  2.000  0.000 0 2 0 2  0.313  0.313   6.36    0.00     0.00    0.00   1   90.00     0    0    0    12   0.0  1   1    4    0   0.000    0.000    0.000  1  0.000000  0.000000  0.000000
 42   1    1  1 0 1    41  16   100  448  448     0.00000   3.11136  6.58334e-02  1015  1765  -0.59  -7.45   4.49  -69.27   -3.00   57.80  2.000  0.000 0 2 0 2  0.313  0.313   6.36    0.00     0.00    0.00   1   90.00     0    0    0    12   0.0  1   1    4    0   0.000    0.000    0.000  1  0.000000  0.000000  0.000000
 43   1    1  1 0 1    42  16   100  448  448     0.00000   3.11136  6.58334e-02  1025  1783  -0.59  -7.45   4.49  -69.01   -3.00   55.82  2.000  0.000 0 2 0 2  0.313  0.313   6.36    0.00     0.00    0.00   1   90.00     0    0    0    12   0.0  1   1    4    0   0.000    0.000    0.000  1  0.000000  0.000000  0.000000
 44   1    1  1 0 1    43  16   100  448  448     0.00000   3.11136  6.58334e-02  1017  1767  -0.59  -7.45   4.49  -68.75   -3.00   53.83  2.000  0.000 0 2 0 2  0.313  0.313   6.36    0.00     0.00    0.00   1   90.00     0    0    0    12   0.0  1   1    4    0   0.000    0.000    0.000  1  0.000000  0.000000  0.000000
 45   1    1  1 0 1    44  16   100  448  448     0.00000   3.11136  6.58334e-02  1061  1844  -0.59  -7.45   4.49  -68.49   -3.00   51.85  2.000  0.000 0 2 0 2  0.313  0.313   6.36    0.00     0.00    0.00   1   90.00     0    0    0    12   0.0  1   1    4    0   0.000    0.000    0.000  1  0.000000  0.000000  0.000000
 46   1    1  1 0 1    45  16   100  448  448     0.00000   3.11136  6.58334e-02  1079  1875  -0.59  -7.45   4.49  -68.23   -3.00   49.87  2.000  0.000 0 2 0 2  0.313  0.313   6.36    0.00     0.00    0.00   1   90.00     0    0    0    12   0.0  1   1    4    0   0.000    0.000    0.000  1  0.000000  0.000000  0.000000
  1   2    1  1 0 1    46  16   100  448  448     0.00000   3.11136  6.58334e-02  1505  2616  -0.59  -7.45   4.49  -79.93   -3.01  139.10  2.000  0.000 0 2 0 2  0.313  0.313  12.72    0.00     0.00    0.00   1   90.00     0    0    0    12   0.0  1   1    4    0   0.000    0.000    0.000  1  0.000000  0.000000  0.000000
  2   2    1  1 0 1    47  16   100  448  448     0.00000   3.11136  6.58334e-02  1452  2524  -0.59  -7.45   4.49  -79.67   -3.01  137.12  2.000  0.000 0 2 0 2  0.313  0.313  12.72    0.00     0.00    0.00   1   90.00     0    0    0    12   0.0  1   1    4    0   0.000    0.000    0.000  1  0.000000  0.000000  0.000000
  3   2    1  1 0 1    48  16   100  448  448     0.00000   3.11136  6.58334e-02  1405  2442  -0.59  -7.45   4.49  -79.41   -3.01  135.14  2.000  0.000 0 2 0 2  0.313  0.313  12.72    0.00     0.00    0.00   1   90.00     0    0    0    12   0.0  1   1    4    0   0.000    0.000    0.000  1  0.000000  0.000000  0.000000
  4   2    1  1 0 1    49  16   100  448  448     0.00000   3.11136  6.58334e-02  1357  2360  -0.59  -7.45   4.49  -79.15   -3.01  133.15  2.000  0.000 0 2 0 2  0.313  0.313  12.72    0.00     0.00    0.00   1   90.00     0    0    0    12   0.0  1   1    4    0   0.000    0.000    0.000  1  0.000000  0.000000  0.000000
  5   2    1  1 0 1    50  16   100  448  448     0.00000   3.11136  6.58334e-02  1338  2326  -0.59  -7.45   4.49  -78.89   -3.01  131.17  2.000  0.000 0 2 0 2  0.313  0.313  12.72    0.00     0.00    0.00   1   90.00     0    0    0    12   0.0  1   1    4    0   0.000    0.000    0.000  1  0.000000  0.000000  0.000000
  6   2    1  1 0 1    51  16   100  448  448     0.00000   3.11136  6.58334e-02  1300  2259  -0.59  -7.45   4.49  -78.63   -3.01  129.19  2.000  0.000 0 2 0 2  0.313  0.313  12.72    0.00     0.00    0.00   1   90.00     0    0    0    12   0.0  1   1    4    0   0.000    0.000    0.000  1  0.000000  0.000000  0.000000
  7   2    1  1 0 1    52  16   100  448  448     0.00000   3.11136  6.58334e-02  1157  2012  -0.59  -7.45   4.49  -78.37   -3.01  127.20  2.000  0.000 0 2 0 2  0.313  0.313  12.72    0.00     0.00    0.00   1   90.00     0    0    0    12   0.0  1   1    4    0   0.000    0.000    0.000  1  0.000000  0.000000  0.000000
  8   2    1  1 0 1    53  16   100  448  448     0.00000   3.11136  6.58334e-02  1091  1896  -0.59  -7.45   4.49  -78.11   -3.01  125.22  2.000  0.000 0 2 0 2  0.313  0.313  12.72    0.00     0.00    0.00   1   90.00     0    0    0    12   0.0  1   1    4    0   0.000    0.000    0.000  1  0.000000  0.000000  0.000000
  9   2    1  1 0 1    54  16   100  448  448     0.00000   3.11136  6.58334e-02  1119  1945  -0.59  -7.45   4.49  -77.85   -3.01  123.24  2.000  0.000 0 2 0 2  0.313  0.313  12.72    0.00     0.00    0.00   1   90.00     0    0    0    12   0.0  1   1    4    0   0.000    0.000    0.000  1  0.000000  0.000000  0.000000
 10   2    1  1 0 1    55  16   100  448  448     0.00000   3.11136  6.58334e-02  1104  1919  -0.59  -7.45   4.49  -77.59   -3.01  121.26  2.000  0.000 0 2 0 2  0.313  0.313  12.72    0.00     0.00    0.00   1   90.00     0    0    0    12   0.0  1   1    4    0   0.000    0.000    0.000  1  0.000000  0.000000  0.000000
 11   2    1  1 0 1    56  16   100  448  448     0.00000   3.11136  6.58334e-02  1110  1930  -0.59  -7.45   4.49  -77.33   -3.01  119.27  2.000  0.000 0 2 0 2  0.313  0.313  12.72    0.00     0.00    0.00   1   90.00     0    0    0    12   0.0  1   1    4    0   0.000    0.000    0.000  1  0.000000  0.000000  0.000000
 12   2    1  1 0 1    57  16   100  448  448     0.00000   3.11136  6.58334e-02  1108  1925  -0.59  -7.45   4.49  -77.07   -3.01  117.29  2.000  0.000 0 2 0 2  0.313  0.313  12.72    0.00     0.00    0.00   1   90.00     0    0    0    12   0.0  1   1    4    0   0.000    0.000    0.000  1  0.000000  0.000000  0.000000
 13   2    1  1 0 1    58  16   100  448  448     0.00000   3.11136  6.58334e-02  1171  2035  -0.59  -7.45   4.49  -76.81   -3.01  115.31  2.000  0.000 0 2 0 2  0.313  0.313  12.72    0.00     0.00    0.00   1   90.00     0    0    0    12   0.0  1   1    4    0   0.000    0.000    0.000  1  0.000000  0.000000  0.000000
 14   2    1  1 0 1    59  16   100  448  448     0.00000   3.11136  6.58334e-02  1209  2102  -0.59  -7.45   4.49  -76.55   -3.01  113.32  2.000  0.000 0 2 0 2  0.313  0.313  12.72    0.00     0.00    0.00   1   90.00     0    0    0    12   0.0  1   1    4    0   0.000    0.000    0.000  1  0.000000  0.000000  0.000000
 15   2    1  1 0 1    60  16   100  448  448     0.00000   3.11136  6.58334e-02  1230  2139  -0.59  -7.45   4.49  -76.29   -3.01  111.34  2.000  0.000 0 2 0 2  0.313  0.313  12.72    0.00     0.00    0.00   1   90.00     0    0    0    12   0.0  1   1    4    0   0.000    0.000    0.000  1  0.000000  0.000000  0.000000
 16   2    1  1 0 1    61  16   100  448  448     0.00000   3.11136  6.58334e-02  1216  2113  -0.59  -7.45   4.49  -76.03   -3.01  109.36  2.000  0.000 0 2 0 2  0.313  0.313  12.72    0.00     0.00    0.00   1   90.00     0    0    0    12   0.0  1   1    4    0   0.000    0.000    0.000  1  0.000000  0.000000  0.000000
 17   2    1  1 0 1    62  16   100  448  448     0.00000   3.11136  6.58334e-02  1203  2091  -0.59  -7.45   4.49  -75.77   -3.01  107.37  2.000  0.000 0 2 0 2  0.313  0.313  12.72    0.00     0.00    0.00   1   90.00     0    0    0    12   0.0  1   1    4    0   0.000    0.000    0.000  1  0.000000  0.000000  0.000000
 18   2    1  1 0 1    63  16   100  448  448     0.00000   3.11136  6.58334e-02  1216  2114  -0.59  -7.45   4.49  -75.51   -3.01  105.39  2.000  0.000 0 2 0 2  0.313  0.313  12.72    0.00     0.00    0.00   1   90.00     0    0    0    12   0.0  1   1    4    0   0.000    0.000    0.000  1  0.000000  0.000000  0.000000
 19   2    1  1 0 1    64  16   100  448  448     0.00000   3.11136  6.58334e-02  1173  2039  -0.59  -7.45   4.49  -75.25   -3.01  103.41  2.000  0.000 0 2 0 2  0.313  0.313  12.72    0.00     0.00    0.00   1   90.00     0    0    0    12   0.0  1   1    4    0   0.000    0.000    0.000  1  0.000000  0.000000  0.000000
 20   2    1  1 0 1    65  16   100  448  448     0.00000   3.11136  6.58334e-02  1160  2016  -0.59  -7.45   4.49  -74.99   -3.01  101.43  2.000  0.000 0 2 0 2  0.313  0.313  12.72    0.00     0.00    0.00   1   90.00     0    0    0    12   0.0  1   1    4    0   0.000    0.000    0.000  1  0.000000  0.000000  0.000000
 21   2    1  1 0 1    66  16   100  448  448     0.00000   3.11136  6.58334e-02  1216  2114  -0.59  -7.45   4.49  -74.73   -3.01   99.44  2.000  0.000 0 2 0 2  0.313  0.313  12.72    0.00     0.00    0.00   1   90.00     0    0    0    12   0.0  1   1    4    0   0.000    0.000    0.000  1  0.000000  0.000000  0.000000
 22   2    1  1 0 1    67  16   100  448  448     0.00000   3.11136  6.58334e-02  1188  2066  -0.59  -7.45   4.49  -74.47   -3.01   97.46  2.000  0.000 0 2 0 2  0.313  0.313  12.72    0.00     0.00    0.00   1   90.00     0    0    0    12   0.0  1   1    4    0   0.000    0.000    0.000  1  0.000000  0.000000  0.000000
 23   2    1  1 0 1    68  16   100  448  448     0.00000   3.11136  6.58334e-02  1182  2054  -0.59  -7.45   4.49  -74.21   -3.01   95.48  2.000  0.000 0 2 0 2  0.313  0.313  12.72    0.00     0.00    0.00   1   90.00     0    0    0    12   0.0  1   1    4    0   0.000    0.000    0.000  1  0.000000  0.000000  0.000000
 24   2    1  1 0 1    69  16   100  448  448     0.00000   3.11136  6.58334e-02  1186  2062  -0.59  -7.45   4.49  -73.95   -3.01   93.49  2.000  0.000 0 2 0 2  0.313  0.313  12.72    0.00     0.00    0.00   1   90.00     0    0    0    12   0.0  1   1    4    0   0.000    0.000    0.000  1  0.000000  0.000000  0.000000
 25   2    1  1 0 1    70  16   100  448  448     0.00000   3.11136  6.58334e-02  1179  2050  -0.59  -7.45   4.49  -73.69   -3.01   91.51  2.000  0.000 0 2 0 2  0.313  0.313  12.72    0.00     0.00    0.00   1   90.00     0    0    0    12   0.0  1   1    4    0   0.000    0.000    0.000  1  0.000000  0.000000  0.000000
 26   2    1  1 0 1    71  16   100  448  448     0.00000   3.11136  6.58334e-02  1168  2030  -0.59  -7.45   4.49  -73.43   -3.00   89.53  2.000  0.000 0 2 0 2  0.313  0.313  12.72    0.00     0.00    0.00   1   90.00     0    0    0    12   0.0  1   1    4    0   0.000    0.000    0.000  1  0.000000  0.000000  0.000000
 27   2    1  1 0 1    72  16   100  448  448     0.00000   3.11136  6.58334e-02  1153  2004  -0.59  -7.45   4.49  -73.17   -3.00   87.54  2.000  0.000 0 2 0 2  0.313  0.313  12.72    0.00     0.00    0.00   1   90.00     0    0    0    12   0.0  1   1    4    0   0.000    0.000    0.000  1  0.000000  0.000000  0.000000
 28   2    1  1 0 1    73  16   100  448  448     0.00000   3.11136  6.58334e-02  1142  1984  -0.59  -7.45   4.49  -72.91   -3.00   85.56  2.000  0.000 0 2 0 2  0.313  0.313  12.72    0.00     0.00    0.00   1   90.00     0    0    0    12   0.0  1   1    4    0   0.000    0.000    0.000  1  0.000000  0.000000  0.000000
 29   2    1  1 0 1    74  16   100  448  448     0.00000   3.11136  6.58334e-02  1106  1923  -0.59  -7.45   4.49  -72.65   -3.00   83.58  2.000  0.000 0 2 0 2  0.313  0.313  12.72    0.00     0.00    0.00   1   90.00     0    0    0    12   0.0  1   1    4    0   0.000    0.000    0.000  1  0.000000  0.000000  0.000000
