# === DATA DESCRIPTION FILE ======================================================
#
# CAUTION - Investigational device.
# Limited by Federal Law to investigational use.
#
# Dataset name: Jane_Weston_WIP_3D_WATSf_ISO
#
# CLINICAL TRYOUT             Research image export tool     V4.2
#
# === GENERAL INFORMATION ========================================================
#
.    Patient name                       :   Jane Weston
.    Examination name                   :   LEFT KNEE
.    Protocol name                      :   WIP 3D_WATSf ISO
.    Examination date/time              :   2020.07.12 / 10:30:30
.    Series Type                        :   Image   MRSERIES
.    Acquisition nr                     :   3
.    Reconstruction nr                  :   1
.    Scan Duration [sec]                :   229
.    Max. number of cardiac phases      :   1
.    Max. number of echoes              :   1
.    Max. number of slices/locations    :   300
.    Max. number of dynamics            :   1
.    Max. number of mixes               :   1
.    Patient position                   :   Feet First Supine
.    Preparation direction              :   Anterior-Posterior
.    Technique                          :   FFE
.    Scan resolution  (x, y)            :   200  200
.    Scan mode                          :   3D
.    Repetition time [ms]               :   20.000  
.    FOV (ap,fh,rl) [mm]                :   140.000  140.000  105.000
.    Water Fat shift [pixels]           :   1.001
.    Angulation midslice(ap,fh,rl)[degr]:   -0.587  -7.450  4.492
.    Off Centre midslice(ap,fh,rl) [mm] :   -74.079  -3.005  94.485
.    Flow compensation <0=no 1=yes> ?   :   0
.    Presaturation     <0=no 1=yes> ?   :   0
.    Phase encoding velocity [cm/sec]   :   0.000000  0.000000  0.000000
.    MTC               <0=no 1=yes> ?   :   0
.    SPIR              <0=no 1=yes> ?   :   0
.    EPI factor        <0,1=no EPI>     :   1
.    Dynamic scan      <0=no 1=yes> ?   :   0
.    Diffusion         <0=no 1=yes> ?   :   0
.    Diffusion echo time [ms]           :   0.0000
.    Max. number of diffusion values    :   1
.    Max. number of gradient orients    :   1
.    Number of label types   <0=no ASL> :   0
#
# === PIXEL VALUES =============================================================
#  PV = pixel value in REC file, FP = floating point value, DV = displayed value on console
#  RS = rescale slope,           RI = rescale intercept,    SS = scale slope
#  DV = PV * RS + RI             FP = DV / (RS * SS)
#
# === IMAGE INFORMATION DEFINITION =============================================
#  The rest of this file contains ONE line per image, this line contains the following information:
#
#  slice number                             (integer)
#  echo number                              (integer)
#  dynamic scan number                      (integer)
#  cardiac phase number                     (integer)
#  image_type_mr                            (integer)
#  scanning sequence                        (integer)
#  index in REC file (in images)            (integer)
#  image pixel size (in bits)               (integer)
#  scan percentage                          (integer)
#  recon resolution (x y)                   (2*integer)
#  rescale intercept                        (float)
#  rescale slope                            (float)
#  scale slope                              (float)
#  window center                            (integer)
#  window width                             (integer)
#  image angulation (ap,fh,rl in degrees )  (3*float)
#  image offcentre (ap,fh,rl in mm )        (3*float)
#  slice thickness (in mm )                 (float)
#  slice gap (in mm )                       (float)
#  image_display_orientation                (integer)
#  slice orientation ( TRA/SAG/COR )        (integer)
#  fmri_status_indication                   (integer)
#  image_type_ed_es  (end diast/end syst)   (integer)
#  pixel spacing (x,y) (in mm)              (2*float)
#  echo_time                                (float)
#  dyn_scan_begin_time                      (float)
#  trigger_time                             (float)
#  diffusion_b_factor                       (float)
#  number of averages                       (integer)
#  image_flip_angle (in degrees)            (float)
#  cardiac frequency   (bpm)                (integer)
#  minimum RR-interval (in ms)              (integer)
#  maximum RR-interval (in ms)              (integer)
#  TURBO factor  <0=no turbo>               (integer)
#  Inversion delay (in ms)                  (float)
#  diffusion b value number    (imagekey!)  (integer)
#  gradient orientation number (imagekey!)  (integer)
#  contrast type                            (string)
#  diffusion anisotropy type                (string)
#  diffusion (ap, fh, rl)                   (3*float)
#  label type (ASL)            (imagekey!)  (integer)
#  Contrast Bolus Agent                     (string)
#  Contrast Bolus Route                     (float)
#  Contrast Bolus Volume                    (string)
#  Contrast Bolus Start Time                (string)
#  Contrast Bolus Total Dose                (float)
#  Contrast Bolus Ingredient                (string)
#  Contrast Bolus Ingredient Concentration  (float)
#
# === IMAGE INFORMATION ==========================================================
#  sl ec  dyn ph ty    idx pix scan% rec size                (re)scale              window        angulation              offcentre        thick   gap   info      spacing     echo     dtime   ttime    diff  avg  flip    freq   RR-int  turbo delay b grad cont anis         diffusion       L.ty  contagent   controute  contvolume  conttime  contdose  contingr  contingrconcen

  1   1    1  1 0 2     0  16    78  400  400     0.00000   4.23590  4.43997e-03   571   993  -0.59  -7.45   4.49  -80.88   -3.01  146.37  0.700 -0.350 0 2 0 2  0.350  0.350   9.20    0.00     0.00    0.00   1   25.00     0    0    0     1   0.0  1   1    7    0   0.000    0.000    0.000  1  0.000000  0.000000  0.000000
  2   1    1  1 0 2     1  16    78  400  400     0.00000   4.23590  4.43997e-03   577  1002  -0.59  -7.45   4.49  -80.84   -3.01  146.02  0.700 -0.350 0 2 0 2  0.350  0.350   9.20    0.00     0.00    0.00   1   25.00     0    0    0     1   0.0  1   1    7    0   0.000    0.000    0.000  1  0.000000  0.000000  0.000000
  3   1    1  1 0 2     2  16    78  400  400     0.00000   4.23590  4.43997e-03   578  1004  -0.59  -7.45   4.49  -80.79   -3.01  145.67  0.700 -0.350 0 2 0 2  0.350  0.350   9.20    0.00     0.00    0.00   1   25.00     0    0    0     1   0.0  1   1    7    0   0.000    0.000    0.000  1  0.000000  0.000000  0.000000
  4   1    1  1 0 2     3  16    78  400  400     0.00000   4.23590  4.43997e-03   584  1015  -0.59  -7.45   4.49  -80.75   -3.01  145.32  0.700 -0.350 0 2 0 2  0.350  0.350   9.20    0.00     0.00    0.00   1   25.00     0    0    0     1   0.0  1   1    7    0   0.000    0.000    0.000  1  0.000000  0.000000  0.000000
  5   1    1  1 0 2     4  16    78  400  400     0.00000   4.23590  4.43997e-03   585  1017  -0.59  -7.45   4.49  -80.70   -3.01  144.98  0.700 -0.350 0 2 0 2  0.350  0.350   9.20    0.00     0.00    0.00   1   25.00     0    0    0     1   0.0  1   1    7    0   0.000    0.000    0.000  1  0.000000  0.000000  0.000000
  6   1    1  1 0 2     5  16    78  400  400     0.00000   4.23590  4.43997e-03   588  1022  -0.59  -7.45   4.49  -80.66   -3.01  144.63  0.700 -0.350 0 2 0 2  0.350  0.350   9.20    0.00     0.00    0.00   1   25.00     0    0    0     1   0.0  1   1    7    0   0.000    0.000    0.000  1  0.000000  0.000000  0.000000
  7   1    1  1 0 2     6  16    78  400  400     0.00000   4.23590  4.43997e-03   591  1027  -0.59  -7.45   4.49  -80.61   -3.01  144.28  0.700 -0.350 0 2 0 2  0.350  0.350   9.20    0.00     0.00    0.00   1   25.00     0    0    0     1   0.0  1   1    7    0   0.000    0.000    0.000  1  0.000000  0.000000  0.000000
  8   1    1  1 0 2     7  16    78  400  400     0.00000   4.23590  4.43997e-03   595  1034  -0.59  -7.45   4.49  -80.56   -3.01  143.94  0.700 -0.350 0 2 0 2  0.350  0.350   9.20    0.00     0.00    0.00   1   25.00     0    0    0     1   0.0  1   1    7    0   0.000    0.000    0.000  1  0.000000  0.000000  0.000000
  9   1    1  1 0 2     8  16    78  400  400     0.00000   4.23590  4.43997e-03   595  1034  -0.59  -7.45   4.49  -80.52   -3.01  143.59  0.700 -0.350 0 2 0 2  0.350  0.350   9.20    0.00     0.00    0.00   1   25.00     0    0    0     1   0.0  1   1    7    0   0.000    0.000    0.000  1  0.000000  0.000000  0.000000
 10   1    1  1 0 2     9  16    78  400  400     0.00000   4.23590  4.43997e-03   600  1043  -0.59  -7.45   4.49  -80.47   -3.01  143.24  0.700 -0.350 0 2 0 2  0.350  0.350   9.20    0.00     0.00    0.00   1   25.00     0    0    0     1   0.0  1   1    7    0   0.000    0.000    0.000  1  0.000000  0.000000  0.000000
 11   1    1  1 0 2    10  16    78  400  400     0.00000   4.23590  4.43997e-03   604  1050  -0.59  -7.45   4.49  -80.43   -3.01  142.90  0.700 -0.350 0 2 0 2  0.350  0.350   9.20    0.00     0.00    0.00   1   25.00     0    0    0     1   0.0  1   1    7    0   0.000    0.000    0.000  1  0.000000  0.000000  0.000000
 12   1    1  1 0 2    11  16    78  400  400     0.00000   4.23590  4.43997e-03   604  1051  -0.59  -7.45   4.49  -80.38   -3.01  142.55  0.700 -0.350 0 2 0 2  0.350  0.350   9.20    0.00     0.00    0.00   1   25.00     0    0    0     1   0.0  1   1    7    0   0.000    0.000    0.000  1  0.000000  0.000000  0.000000
 13   1    1  1 0 2    12  16    78  400  400     0.00000   4.23590  4.43997e-03   612  1064  -0.59  -7.45   4.49  -80.34   -3.01  142.20  0.700 -0.350 0 2 0 2  0.350  0.350   9.20    0.00     0.00    0.00   1   25.00     0    0    0     1   0.0  1   1    7    0   0.000    0.000    0.000  1  0.000000  0.000000  0.000000
 14   1    1  1 0 2    13  16    78  400  400     0.00000   4.23590  4.43997e-03   616  1071  -0.59  -7.45   4.49  -80.29   -3.01  141.85  0.700 -0.350 0 2 0 2  0.350  0.350   9.20    0.00     0.00    0.00   1   25.00     0    0    0     1   0.0  1   1    7    0   0.000    0.000    0.000  1  0.000000  0.000000  0.000000
 15   1    1  1 0 2    14  16    78  400  400     0.00000   4.23590  4.43997e-03   624  1085  -0.59  -7.45   4.49  -80.25   -3.01  141.51  0.700 -0.350 0 2 0 2  0.350  0.350   9.20    0.00     0.00    0.00   1   25.00     0    0    0     1   0.0  1   1    7    0   0.000    0.000    0.000  1  0.000000  0.000000  0.000000
 16   1    1  1 0 2    15  16    78  400  400     0.00000   4.23590  4.43997e-03   624  1086  -0.59  -7.45   4.49  -80.20   -3.01  141.16  0.700 -0.350 0 2 0 2  0.350  0.350   9.20    0.00     0.00    0.00   1   25.00     0    0    0     1   0.0  1   1    7    0   0.000    0.000    0.000  1  0.000000  0.000000  0.000000
 17   1    1  1 0 2    16  16    78  400  400     0.00000   4.23590  4.43997e-03   626  1088  -0.59  -7.45   4.49  -80.16   -3.01  140.81  0.700 -0.350 0 2 0 2  0.350  0.350   9.20    0.00     0.00    0.00   1   25.00     0    0    0     1   0.0  1   1    7    0   0.000    0.000    0.000  1  0.000000  0.000000  0.000000
 18   1    1  1 0 2    17  16    78  400  400     0.00000   4.23590  4.43997e-03   634  1102  -0.59  -7.45   4.49  -80.11   -3.01  140.47  0.700 -0.350 0 2 0 2  0.350  0.350   9.20    0.00     0.00    0.00   1   25.00     0    0    0     1   0.0  1   1    7    0   0.000    0.000    0.000  1  0.000000  0.000000  0.000000
 19   1    1  1 0 2    18  16    78  400  400     0.00000   4.23590  4.43997e-03   653  1136  -0.59  -7.45   4.49  -80.06   -3.01  140.12  0.700 -0.350 0 2 0 2  0.350  0.350   9.20    0.00     0.00    0.00   1   25.00     0    0    0     1   0.0  1   1    7    0   0.000    0.000    0.000  1  0.000000  0.000000  0.000000
 20   1    1  1 0 2    19  16    78  400  400     0.00000   4.23590  4.43997e-03   662  1151  -0.59  -7.45   4.49  -80.02   -3.01  139.77  0.700 -0.350 0 2 0 2  0.350  0.350   9.20    0.00     0.00    0.00   1   25.00     0    0    0     1   0.0  1   1    7    0   0.000    0.000    0.000  1  0.000000  0.000000  0.000000
 21   1    1  1 0 2    20  16    78  400  400     0.00000   4.23590  4.43997e-03   674  1172  -0.59  -7.45   4.49  -79.97   -3.01  139.43  0.700 -0.350 0 2 0 2  0.350  0.350   9.20    0.00     0.00    0.00   1   25.00     0    0    0     1   0.0  1   1    7    0   0.000    0.000    0.000  1  0.000000  0.000000  0.000000
 22   1    1  1 0 2    21  16    78  400  400     0.00000   4.23590  4.43997e-03   686  1192  -0.59  -7.45   4.49  -79.93   -3.01  139.08  0.700 -0.350 0 2 0 2  0.350  0.350   9.20    0.00     0.00    0.00   1   25.00     0    0    0     1   0.0  1   1    7    0   0.000    0.000    0.000  1  0.000000  0.000000  0.000000
 23   1    1  1 0 2    22  16    78  400  400     0.00000   4.23590  4.43997e-03   682  1185  -0.59  -7.45   4.49  -79.88   -3.01  138.73  0.700 -0.350 0 2 0 2  0.350  0.350   9.20    0.00     0.00    0.00   1   25.00     0    0    0     1   0.0  1   1    7    0   0.000    0.000    0.000  1  0.000000  0.000000  0.000000
 24   1    1  1 0 2    23  16    78  400  400     0.00000   4.23590  4.43997e-03   687  1194  -0.59  -7.45   4.49  -79.84   -3.01  138.38  0.700 -0.350 0 2 0 2  0.350  0.350   9.20    0.00     0.00    0.00   1   25.00     0    0    0     1   0.0  1   1    7    0   0.000    0.000    0.000  1  0.000000  0.000000  0.000000
 25   1    1  1 0 2    24  16    78  400  400     0.00000   4.23590  4.43997e-03   708  1230  -0.59  -7.45   4.49  -79.79   -3.01  138.04  0.700 -0.350 0 2 0 2  0.350  0.350   9.20    0.00     0.00    0.00   1   25.00     0    0    0     1   0.0  1   1    7    0   0.000    0.000    0.000  1  0.000000  0.000000  0.000000
 26   1    1  1 0 2    25  16    78  400  400     0.00000   4.23590  4.43997e-03   699  1216  -0.59  -7.45   4.49  -79.75   -3.01  137.69  0.700 -0.350 0 2 0 2  0.350  0.350   9.20    0.00     0.00    0.00   1   25.00     0    0    0     1   0.0  1   1    7    0   0.000    0.000    0.000  1  0.000000  0.000000  0.000000
 27   1    1  1 0 2    26  16    78  400  400     0.00000   4.23590  4.43997e-03   679  1180  -0.59  -7.45   4.49  -79.70   -3.01  137.34  0.700 -0.350 0 2 0 2  0.350  0.350   9.20    0.00     0.00    0.00   1   25.00     0    0    0     1   0.0  1   1    7    0   0.000    0.000    0.000  1  0.000000  0.000000  0.000000
 28   1    1  1 0 2    27  16    78  400  400     0.00000   4.23590  4.43997e-03   678  1178  -0.59  -7.45   4.49  -79.65   -3.01  137.00  0.700 -0.350 0 2 0 2  0.350  0.350   9.20    0.00     0.00    0.00   1   25.00     0    0    0     1   0.0  1   1    7    0   0.000    0.000    0.000  1  0.000000  0.000000  0.000000
 29   1    1  1 0 2    28  16    78  400  400     0.00000   4.23590  4.43997e-03   697  1212  -0.59  -7.45   4.49  -79.61   -3.01  136.65  0.700 -0.350 0 2 0 2  0.350  0.350   9.20    0.00     0.00    0.00   1   25.00     0    0    0     1   0.0  1   1    7    0   0.000    0.000    0.000  1  0.000000  0.000000  0.000000
 30   1    1  1 0 2    29  16    78  400  400     0.00000   4.23590  4.43997e-03   703  1222  -0.59  -7.45   4.49  -79.56   -3.01  136.30  0.700 -0.350 0 2 0 2  0.350  0.350   9.20    0.00     0.00    0.00   1   25.00     0    0    0     1   0.0  1   1    7    0   0.000    0.000    0.000  1  0.000000  0.000000  0.000000
 31   1    1  1 0 2    30  16    78  400  400     0.00000   4.23590  4.43997e-03   701  1219  -0.59  -7.45   4.49  -79.52   -3.01  135.95  0.700 -0.350 0 2 0 2  0.350  0.350   9.20    0.00     0.00    0.00   1   25.00     0    0    0     1   0.0  1   1    7    0   0.000    0.000    0.000  1  0.000000  0.000000  0.000000
 32   1    1  1 0 2    31  16    78  400  400     0.00000   4.23590  4.43997e-03   708  1231  -0.59  -7.45   4.49  -79.47   -3.01  135.61  0.700 -0.350 0 2 0 2  0.350  0.350   9.20    0.00     0.00    0.00   1   25.00     0    0    0     1   0.0  1   1    7    0   0.000    0.000    0.000  1  0.000000  0.000000  0.000000
 33   1    1  1 0 2    32  16    78  400  400     0.00000   4.23590  4.43997e-03   703  1223  -0.59  -7.45   4.49  -79.43   -3.01  135.26  0.700 -0.350 0 2 0 2  0.350  0.350   9.20    0.00     0.00    0.00   1   25.00     0    0    0     1   0.0  1   1    7    0   0.000    0.000    0.000  1  0.000000  0.000000  0.000000
 34   1    1  1 0 2    33  16    78  400  400     0.00000   4.23590  4.43997e-03   700  1218  -0.59  -7.45   4.49  -79.38   -3.01  134.91  0.700 -0.350 0 2 0 2  0.350  0.350   9.20    0.00     0.00    0.00   1   25.00     0    0    0     1   0.0  1   1    7    0   0.000    0.000    0.000  1  0.000000  0.000000  0.000000
 35   1    1  1 0 2    34  16    78  400  400     0.00000   4.23590  4.43997e-03   694  1207  -0.59  -7.45   4.49  -79.34   -3.01  134.57  0.700 -0.350 0 2 0 2  0.350  0.350   9.20    0.00     0.00    0.00   1   25.00     0    0    0     1   0.0  1   1    7    0   0.000    0.000    0.000  1  0.000000  0.000000  0.000000
 36   1    1  1 0 2    35  16    78  400  400     0.00000   4.23590  4.43997e-03   709  1232  -0.59  -7.45   4.49  -79.29   -3.01  134.22  0.700 -0.350 0 2 0 2  0.350  0.350   9.20    0.00     0.00    0.00   1   25.00     0    0    0     1   0.0  1   1    7    0   0.000    0.000    0.000  1  0.000000  0.000000  0.000000
 37   1    1  1 0 2    36  16    78  400  400     0.00000   4.23590  4.43997e-03   734  1276  -0.59  -7.45   4.49  -79.24   -3.01  133.87  0.700 -0.350 0 2 0 2  0.350  0.350   9.20    0.00     0.00    0.00   1   25.00     0    0    0     1   0.0  1   1    7    0   0.000    0.000    0.000  1  0.000000  0.000000  0.000000
 38   1    1  1 0 2    37  16    78  400  400     0.00000   4.23590  4.43997e-03   747  1299  -0.59  -7.45   4.49  -79.20   -3.01  133.53  0.700 -0.350 0 2 0 2  0.350  0.350   9.20    0.00     0.00    0.00   1   25.00     0    0    0     1   0.0  1   1    7    0   0.000    0.000    0.000  1  0.000000  0.000000  0.000000
 39   1    1  1 0 2    38  16    78  400  400     0.00000   4.23590  4.43997e-03   761  1323  -0.59  -7.45   4.49  -79.15   -3.01  133.18  0.700 -0.350 0 2 0 2  0.350  0.350   9.20    0.00     0.00    0.00   1   25.00     0    0    0     1   0.0  1   1    7    0   0.000    0.000    0.000  1  0.000000  0.000000  0.000000
 40   1    1  1 0 2    39  16    78  400  400     0.00000   4.23590  4.43997e-03   766  1332  -0.59  -7.45   4.49  -79.11   -3.01  132.83  0.700 -0.350 0 2 0 2  0.350  0.350   9.20    0.00     0.00    0.00   1   25.00     0    0    0     1   0.0  1   1    7    0   0.000    0.000    0.000  1  0.000000  0.000000  0.000000
 41   1    1  1 0 2    40  16    78  400  400     0.00000   4.23590  4.43997e-03   744  1294  -0.59  -7.45   4.49  -79.06   -3.01  132.48  0.700 -0.350 0 2 0 2  0.350  0.350   9.20    0.00     0.00    0.00   1   25.00     0    0    0     1   0.0  1   1    7    0   0.000    0.000    0.000  1  0.000000  0.000000  0.000000
 42   1    1  1 0 2    41  16    78  400  400     0.00000   4.23590  4.43997e-03   745  1294  -0.59  -7.45   4.49  -79.02   -3.01  132.14  0.700 -0.350 0 2 0 2  0.350  0.350   9.20    0.00     0.00    0.00   1   25.00     0    0    0     1   0.0  1   1    7    0   0.000    0.000    0.000  1  0.000000  0.000000  0.000000
 43   1    1  1 0 2    42  16    78  400  400     0.00000   4.23590  4.43997e-03   755  1312  -0.59  -7.45   4.49  -78.97   -3.01  131.79  0.700 -0.350 0 2 0 2  0.350  0.350   9.20    0.00     0.00    0.00   1   25.00     0    0    0     1   0.0  1   1    7    0   0.000    0.000    0.000  1  0.000000  0.000000  0.000000
 44   1    1  1 0 2    43  16    78  400  400     0.00000   4.23590  4.43997e-03   792  1377  -0.59  -7.45   4.49  -78.93   -3.01  131.44  0.700 -0.350 0 2 0 2  0.350  0.350   9.20    0.00     0.00    0.00   1   25.00     0    0    0     1   0.0  1   1    7    0   0.000    0.000    0.000  1  0.000000  0.000000  0.000000
 45   1    1  1 0 2    44  16    78  400  400     0.00000   4.23590  4.43997e-03   778  1352  -0.59  -7.45   4.49  -78.88   -3.01  131.10  0.700 -0.350 0 2 0 2  0.350  0.350   9.20    0.00     0.00    0.00   1   25.00     0    0    0     1   0.0  1   1    7    0   0.000    0.000    0.000  1  0.000000  0.000000  0.000000
 46   1    1  1 0 2    45  16    78  400  400     0.00000   4.23590  4.43997e-03   787  1368  -0.59  -7.45   4.49  -78.84   -3.01  130.75  0.700 -0.350 0 2 0 2  0.350  0.350   9.20    0.00     0.00    0.00   1   25.00     0    0    0     1   0.0  1   1    7    0   0.000    0.000    0.000  1  0.000000  0.000000  0.000000
 47   1    1  1 0 2    46  16    78  400  400     0.00000   4.23590  4.43997e-03   791  1376  -0.59  -7.45   4.49  -78.79   -3.01  130.40  0.700 -0.350 0 2 0 2  0.350  0.350   9.20    0.00     0.00    0.00   1   25.00     0    0    0     1   0.0  1   1    7    0   0.000    0.000    0.000  1  0.000000  0.000000  0.000000
 48   1    1  1 0 2    47  16    78  400  400     0.00000   4.23590  4.43997e-03   835  1451  -0.59  -7.45   4.49  -78.74   -3.01  130.06  0.700 -0.350 0 2 0 2  0.350  0.350   9.20    0.00     0.00    0.00   1   25.00     0    0    0     1   0.0  1   1    7    0   0.000    0.000    0.000  1  0.000000  0.000000  0.000000
 49   1    1  1 0 2    48  16    78  400  400     0.00000   4.23590  4.43997e-03   841  1462  -0.59  -7.45   4.49  -78.70   -3.01  129.71  0.700 -0.350 0 2 0 2  0.350  0.350   9.20    0.00     0.00    0.00   1   25.00     0    0    0     1   0.0  1   1    7    0   0.000    0.000    0.000  1  0.000000  0.000000  0.000000
 50   1    1  1 0 2    49  16    78  400  400     0.00000   4.23590  4.43997e-03   849  1476  -0.59  -7.45   4.49  -78.65   -3.01  129.36  0.700 -0.350 0 2 0 2  0.350  0.350   9.20    0.00     0.00    0.00   1   25.00     0    0    0     1   0.0  1   1    7    0   0.000    0.000    0.000  1  0.000000  0.000000  0.000000
 51   1    1  1 0 2    50  16    78  400  400     0.00000   4.23590  4.43997e-03   821  1427  -0.59  -7.45   4.49  -78.61   -3.01  129.01  0.700 -0.350 0 2 0 2  0.350  0.350   9.20    0.00     0.00    0.00   1   25.00     0    0    0     1   0.0  1   1    7    0   0.000    0.000    0.000  1  0.000000  0.000000  0.000000
 52   1    1  1 0 2    51  16    78  400  400     0.00000   4.23590  4.43997e-03   827  1437  -0.59  -7.45   4.49  -78.56   -3.01  128.67  0.700 -0.350 0 2 0 2  0.350  0.350   9.20    0.00     0.00    0.00   1   25.00     0    0    0     1   0.0  1   1    7    0   0.000    0.000    0.000  1  0.000000  0.000000  0.000000
 53   1    1  1 0 2    52  16    78  400  400     0.00000   4.23590  4.43997e-03   835  1452  -0.59  -7.45   4.49  -78.52   -3.01  128.32  0.700 -0.350 0 2 0 2  0.350  0.350   9.20    0.00     0.00    0.00   1   25.00     0    0    0     1   0.0  1   1    7    0   0.000    0.000    0.000  1  0.000000  0.000000  0.000000
 54   1    1  1 0 2    53  16    78  400  400     0.00000   4.23590  4.43997e-03   865  1504  -0.59  -7.45   4.49  -78.47   -3.01  127.97  0.700 -0.350 0 2 0 2  0.350  0.350   9.20    0.00     0.00    0.00   1   25.00     0    0    0     1   0.0  1   1    7    0   0.000    0.000    0.000  1  0.000000  0.000000  0.000000
 55   1    1  1 0 2    54  16    78  400  400     0.00000   4.23590  4.43997e-03   877  1525  -0.59  -7.45   4.49  -78.43   -3.01  127.63  0.700 -0.350 0 2 0 2  0.350  0.350   9.20    0.00     0.00    0.00   1   25.00     0    0    0     1   0.0  1   1    7    0   0.000    0.000    0.000  1  0.000000  0.000000  0.000000
 56   1    1  1 0 2    55  16    78  400  400     0.00000   4.23590  4.43997e-03   894  1554  -0.59  -7.45   4.49  -78.38   -3.01  127.28  0.700 -0.350 0 2 0 2  0.350  0.350   9.20    0.00     0.00    0.00   1   25.00     0    0    0     1   0.0  1   1    7    0   0.000    0.000    0.000  1  0.000000  0.000000  0.000000
 57   1    1  1 0 2    56  16    78  400  400     0.00000   4.23590  4.43997e-03   903  1570  -0.59  -7.45   4.49  -78.33   -3.01  126.93  0.700 -0.350 0 2 0 2  0.350  0.350   9.20    0.00     0.00    0.00   1   25.00     0    0    0     1   0.0  1   1    7    0   0.000    0.000    0.000  1  0.000000  0.000000  0.000000
 58   1    1  1 0 2    57  16    78  400  400     0.00000   4.23590  4.43997e-03   906  1576  -0.59  -7.45   4.49  -78.29   -3.01  126.59  0.700 -0.350 0 2 0 2  0.350  0.350   9.20    0.00     0.00    0.00   1   25.00     0    0    0     1   0.0  1   1    7    0   0.000    0.000    0.000  1  0.000000  0.000000  0.000000
 59   1    1  1 0 2    58  16    78  400  400     0.00000   4.23590  4.43997e-03   909  1580  -0.59  -7.45   4.49  -78.24   -3.01  126.24  0.700 -0.350 0 2 0 2  0.350  0.350   9.20    0.00     0.00    0.00   1   25.00     0    0    0     1   0.0  1   1    7    0   0.000    0.000    0.000  1  0.000000  0.000000  0.000000
 60   1    1  1 0 2    59  16    78  400  400     0.00000   4.23590  4.43997e-03   913  1587  -0.59  -7.45   4.49  -78.20   -3.01  125.89  0.700 -0.350 0 2 0 2  0.350  0.350   9.20    0.00     0.00    0.00   1   25.00     0    0    0     1   0.0  1   1    7    0   0.000    0.000    0.000  1  0.000000  0.000000  0.000000
 61   1    1  1 0 2    60  16    78  400  400     0.00000   4.23590  4.43997e-03   913  1586  -0.59  -7.45   4.49  -78.15   -3.01  125.54  0.700 -0.350 0 2 0 2  0.350  0.350   9.20    0.00     0.00    0.00   1   25.00     0    0    0     1   0.0  1   1    7    0   0.000    0.000    0.000  1  0.000000  0.000000  0.000000
 62   1    1  1 0 2    61  16    78  400  400     0.00000   4.23590  4.43997e-03   907  1577  -0.59  -7.45   4.49  -78.11   -3.01  125.20  0.700 -0.350 0 2 0 2  0.350  0.350   9.20    0.00     0.00    0.00   1   25.00     0    0    0     1   0.0  1   1    7    0   0.000    0.000    0.000  1  0.000000  0.000000  0.000000
 63   1    1  1 0 2    62  16    78  400  400     0.00000   4.23590  4.43997e-03   914  1589  -0.59  -7.45   4.49  -78.06   -3.01  124.85  0.700 -0.350 0 2 0 2  0.350  0.350   9.20    0.00     0.00    0.00   1   25.00     0    0    0     1   0.0  1   1    7    0   0.000    0.000    0.000  1  0.000000  0.000000  0.000000
 64   1    1  1 0 2    63  16    78  400  400     0.00000   4.23590  4.43997e-03   915  1591  -0.59  -7.45   4.49  -78.02   -3.01  124.50  0.700 -0.350 0 2 0 2  0.350  0.350   9.20    0.00     0.00    0.00   1   25.00     0    0    0     1   0.0  1   1    7    0   0.000    0.000    0.000  1  0.000000  0.000000  0.000000
 65   1    1  1 0 2    64  16    78  400  400     0.00000   4.23590  4.43997e-03   916  1592  -0.59  -7.45   4.49  -77.97   -3.01  124.16  0.700 -0.350 0 2 0 2  0.350  0.350   9.20    0.00     0.00    0.00   1   25.00     0    0    0     1   0.0  1   1    7    0   0.000    0.000    0.000  1  0.000000  0.000000  0.000000
 66   1    1  1 0 2    65  16    78  400  400     0.00000   4.23590  4.43997e-03   920  1599  -0.59  -7.45   4.49  -77.92   -3.01  123.81  0.700 -0.350 0 2 0 2  0.350  0.350   9.20    0.00     0.00    0.00   1   25.00     0    0    0     1   0.0  1   1    7    0   0.000    0.000    0.000  1  0.000000  0.000000  0.000000
 67   1    1  1 0 2    66  16    78  400  400     0.00000   4.23590  4.43997e-03   929  1615  -0.59  -7.45   4.49  -77.88   -3.01  123.46  0.700 -0.350 0 2 0 2  0.350  0.350   9.20    0.00     0.00    0.00   1   25.00     0    0    0     1   0.0  1   1    7    0   0.000    0.000    0.000  1  0.000000  0.000000  0.000000
 68   1    1  1 0 2    67  16    78  400  400     0.00000   4.23590  4.43997e-03   923  1605  -0.59  -7.45   4.49  -77.83   -3.01  123.11  0.700 -0.350 0 2 0 2  0.350  0.350   9.20    0.00     0.00    0.00   1   25.00     0    0    0     1   0.0  1   1    7    0   0.000    0.000    0.000  1  0.000000  0.000000  0.000000
 69   1    1  1 0 2    68  16    78  400  400     0.00000   4.23590  4.43997e-03   914  1589  -0.59  -7.45   4.49  -77.79   -3.01  122.77  0.700 -0.350 0 2 0 2  0.350  0.350   9.20    0.00     0.00    0.00   1   25.00     0    0    0     1   0.0  1   1    7    0   0.000    0.000    0.000  1  0.000000  0.000000  0.000000
 70   1    1  1 0 2    69  16    78  400  400     0.00000   4.23590  4.43997e-03   905  1573  -0.59  -7.45   4.49  -77.74   -3.01  122.42  0.700 -0.350 0 2 0 2  0.350  0.350   9.20    0.00     0.00    0.00   1   25.00     0    0    0     1   0.0  1   1    7    0   0.000    0.000    0.000  1  0.000000  0.000000  0.000000
 71   1    1  1 0 2    70  16    78  400  400     0.00000   4.23590  4.43997e-03   907  1577  -0.59  -7.45   4.49  -77.70   -3.01  122.07  0.700 -0.350 0 2 0 2  0.350  0.350   9.20    0.00     0.00    0.00   1   25.00     0    0    0     1   0.0  1   1    7    0   0.000    0.000    0.000  1  0.000000  0.000000  0.000000
 72   1    1  1 0 2    71  16    78  400  400     0.00000   4.23590  4.43997e-03   907  1577  -0.59  -7.45   4.49  -77.65   -3.01  121.73  0.700 -0.350 0 2 0 2  0.350  0.350   9.20    0.00     0.00    0.00   1   25.00     0    0    0     1   0.0  1   1    7    0   0.000    0.000    0.000  1  0.000000  0.000000  0.000000
 73   1    1  1 0 2    72  16    78  400  400     0.00000   4.23590  4.43997e-03   908  1579  -0.59  -7.45   4.49  -77.61   -3.01  121.38  0.700 -0.350 0 2 0 2  0.350  0.350   9.20    0.00     0.00    0.00   1   25.00     0    0    0     1   0.0  1   1    7    0   0.000    0.000    0.000  1  0.000000  0.000000  0.000000
 74   1    1  1 0 2    73  16    78  400  400     0.00000   4.23590  4.43997e-03   911  1584  -0.59  -7.45   4.49  -77.56   -3.01  121.03  0.700 -0.350 0 2 0 2  0.350  0.350   9.20    0.00     0.00    0.00   1   25.00     0    0    0     1   0.0  1   1    7    0   0.000    0.000    0.000  1  0.000000  0.000000  0.000000
 75   1    1  1 0 2    74  16    78  400  400     0.00000   4.23590  4.43997e-03   909  1581  -0.59  -7.45   4.49  -77.52   -3.01  120.69  0.700 -0.350 0 2 0 2  0.350  0.350   9.20    0.00     0.00    0.00   1   25.00     0    0    0     1   0.0  1   1    7    0   0.000    0.000    0.000  1  0.000000  0.000000  0.000000
