# === DATA DESCRIPTION FILE ======================================================
#
# CAUTION - Investigational device.
# Limited by Federal Law to investigational use.
#
# Dataset name: Jane_Weston_WIP_3D_WATSf_ISO
#
# CLINICAL TRYOUT             Research image export tool     V4.2
#
# === GENERAL INFORMATION ========================================================
#
.    Patient name                       :   Jane Weston
.    Examination name                   :   LEFT KNEE
.    Protocol name                      :   WIP T1rho_5Echoes_40ms
.    Examination date/time              :   2020.07.12 / 10:50:50
.    Series Type                        :   Image   MRSERIES
.    Acquisition nr                     :   5
.    Reconstruction nr                  :   1
.    Scan Duration [sec]                :   397
.    Max. number of cardiac phases      :   1
.    Max. number of echoes              :   5
.    Max. number of slices/locations    :   66
.    Max. number of dynamics            :   1
.    Max. number of mixes               :   1
.    Patient position                   :   Feet First Supine
.    Preparation direction              :   Anterior-Posterior
.    Technique                          :   T1TFE
.    Scan resolution  (x, y)            :   256  193
.    Scan mode                          :   3D
.    Repetition time [ms]               :   6.888  
.    FOV (ap,fh,rl) [mm]                :   154.000  154.000  99.000
.    Water Fat shift [pixels]           :   1.504
.    Angulation midslice(ap,fh,rl)[degr]:   -0.587  -7.450  4.492
.    Off Centre midslice(ap,fh,rl) [mm] :   -74.079  -3.005  94.485
.    Flow compensation <0=no 1=yes> ?   :   0
.    Presaturation     <0=no 1=yes> ?   :   0
.    Phase encoding velocity [cm/sec]   :   0.000000  0.000000  0.000000
.    MTC               <0=no 1=yes> ?   :   0
.    SPIR              <0=no 1=yes> ?   :   0
.    EPI factor        <0,1=no EPI>     :   1
.    Dynamic scan      <0=no 1=yes> ?   :   0
.    Diffusion         <0=no 1=yes> ?   :   0
.    Diffusion echo time [ms]           :   0.0000
.    Max. number of diffusion values    :   1
.    Max. number of gradient orients    :   1
.    Number of label types   <0=no ASL> :   0
#
# === PIXEL VALUES =============================================================
#  PV = pixel value in REC file, FP = floating point value, DV = displayed value on console
#  RS = rescale slope,           RI = rescale intercept,    SS = scale slope
#  DV = PV * RS + RI             FP = DV / (RS * SS)
#
# === IMAGE INFORMATION DEFINITION =============================================
#  The rest of this file contains ONE line per image, this line contains the following information:
#
#  slice number                             (integer)
#  echo number                              (integer)
#  dynamic scan number                      (integer)
#  cardiac phase number                     (integer)
#  image_type_mr                            (integer)
#  scanning sequence                        (integer)
#  index in REC file (in images)            (integer)
#  image pixel size (in bits)               (integer)
#  scan percentage                          (integer)
#  recon resolution (x y)                   (2*integer)
#  rescale intercept                        (float)
#  rescale slope                            (float)
#  scale slope                              (float)
#  window center                            (integer)
#  window width                             (integer)
#  image angulation (ap,fh,rl in degrees )  (3*float)
#  image offcentre (ap,fh,rl in mm )        (3*float)
#  slice thickness (in mm )                 (float)
#  slice gap (in mm )                       (float)
#  image_display_orientation                (integer)
#  slice orientation ( TRA/SAG/COR )        (integer)
#  fmri_status_indication                   (integer)
#  image_type_ed_es  (end diast/end syst)   (integer)
#  pixel spacing (x,y) (in mm)              (2*float)
#  echo_time                                (float)
#  dyn_scan_begin_time                      (float)
#  trigger_time                             (float)
#  diffusion_b_factor                       (float)
#  number of averages                       (integer)
#  image_flip_angle (in degrees)            (float)
#  cardiac frequency   (bpm)                (integer)
#  minimum RR-interval (in ms)              (integer)
#  maximum RR-interval (in ms)              (integer)
#  TURBO factor  <0=no turbo>               (integer)
#  Inversion delay (in ms)                  (float)
#  diffusion b value number    (imagekey!)  (integer)
#  gradient orientation number (imagekey!)  (integer)
#  contrast type                            (string)
#  diffusion anisotropy type                (string)
#  diffusion (ap, fh, rl)                   (3*float)
#  label type (ASL)            (imagekey!)  (integer)
#  Contrast Bolus Agent                     (string)
#  Contrast Bolus Route                     (float)
#  Contrast Bolus Volume                    (string)
#  Contrast Bolus Start Time                (string)
#  Contrast Bolus Total Dose                (float)
#  Contrast Bolus Ingredient                (string)
#  Contrast Bolus Ingredient Concentration  (float)
#
# === IMAGE INFORMATION ==========================================================
#  sl ec  dyn ph ty    idx pix scan% rec size                (re)scale              window        angulation              offcentre        thick   gap   info      spacing     echo     dtime   ttime    diff  avg  flip    freq   RR-int  turbo delay b grad cont anis         diffusion       L.ty  contagent   controute  contvolume  conttime  contdose  contingr  contingrconcen

  1   1    1  1 0 2     0  16    59  320  320     0.00000   6.05519  1.83305e-03   382   664  -0.59  -7.45   4.49  -80.42   -3.01  142.82  3.000 -1.500 0 2 0 2  0.481  0.481   2.70    0.00     0.00    0.00   1    8.00     0    0    0   110 1700.0  1   1    7    0   0.000    0.000    0.000  1  0.000000  0.000000  0.000000
  2   1    1  1 0 2     1  16    59  320  320     0.00000   6.05519  1.83305e-03   472   820  -0.59  -7.45   4.49  -80.22   -3.01  141.33  3.000 -1.500 0 2 0 2  0.481  0.481   2.70    0.00     0.00    0.00   1    8.00     0    0    0   110 1700.0  1   1    7    0   0.000    0.000    0.000  1  0.000000  0.000000  0.000000
  3   1    1  1 0 2     2  16    59  320  320     0.00000   6.05519  1.83305e-03   579  1006  -0.59  -7.45   4.49  -80.03   -3.01  139.85  3.000 -1.500 0 2 0 2  0.481  0.481   2.70    0.00     0.00    0.00   1    8.00     0    0    0   110 1700.0  1   1    7    0   0.000    0.000    0.000  1  0.000000  0.000000  0.000000
  4   1    1  1 0 2     3  16    59  320  320     0.00000   6.05519  1.83305e-03   676  1176  -0.59  -7.45   4.49  -79.83   -3.01  138.36  3.000 -1.500 0 2 0 2  0.481  0.481   2.70    0.00     0.00    0.00   1    8.00     0    0    0   110 1700.0  1   1    7    0   0.000    0.000    0.000  1  0.000000  0.000000  0.000000
  5   1    1  1 0 2     4  16    59  320  320     0.00000   6.05519  1.83305e-03   732  1273  -0.59  -7.45   4.49  -79.64   -3.01  136.87  3.000 -1.500 0 2 0 2  0.481  0.481   2.70    0.00     0.00    0.00   1    8.00     0    0    0   110 1700.0  1   1    7    0   0.000    0.000    0.000  1  0.000000  0.000000  0.000000
  6   1    1  1 0 2     5  16    59  320  320     0.00000   6.05519  1.83305e-03   761  1323  -0.59  -7.45   4.49  -79.44   -3.01  135.38  3.000 -1.500 0 2 0 2  0.481  0.481   2.70    0.00     0.00    0.00   1    8.00     0    0    0   110 1700.0  1   1    7    0   0.000    0.000    0.000  1  0.000000  0.000000  0.000000
  7   1    1  1 0 2     6  16    59  320  320     0.00000   6.05519  1.83305e-03   783  1361  -0.59  -7.45   4.49  -79.25   -3.01  133.90  3.000 -1.500 0 2 0 2  0.481  0.481   2.70    0.00     0.00    0.00   1    8.00     0    0    0   110 1700.0  1   1    7    0   0.000    0.000    0.000  1  0.000000  0.000000  0.000000
  8   1    1  1 0 2     7  16    59  320  320     0.00000   6.05519  1.83305e-03   787  1369  -0.59  -7.45   4.49  -79.05   -3.01  132.41  3.000 -1.500 0 2 0 2  0.481  0.481   2.70    0.00     0.00    0.00   1    8.00     0    0    0   110 1700.0  1   1    7    0   0.000    0.000    0.000  1  0.000000  0.000000  0.000000
  9   1    1  1 0 2     8  16    59  320  320     0.00000   6.05519  1.83305e-03   760  1321  -0.59  -7.45   4.49  -78.86   -3.01  130.92  3.000 -1.500 0 2 0 2  0.481  0.481   2.70    0.00     0.00    0.00   1    8.00     0    0    0   110 1700.0  1   1    7    0   0.000    0.000    0.000  1  0.000000  0.000000  0.000000
 10   1    1  1 0 2     9  16    59  320  320     0.00000   6.05519  1.83305e-03   760  1321  -0.59  -7.45   4.49  -78.66   -3.01  129.44  3.000 -1.500 0 2 0 2  0.481  0.481   2.70    0.00     0.00    0.00   1    8.00     0    0    0   110 1700.0  1   1    7    0   0.000    0.000    0.000  1  0.000000  0.000000  0.000000
 11   1    1  1 0 2    10  16    59  320  320     0.00000   6.05519  1.83305e-03   719  1249  -0.59  -7.45   4.49  -78.47   -3.01  127.95  3.000 -1.500 0 2 0 2  0.481  0.481   2.70    0.00     0.00    0.00   1    8.00     0    0    0   110 1700.0  1   1    7    0   0.000    0.000    0.000  1  0.000000  0.000000  0.000000
 12   1    1  1 0 2    11  16    59  320  320     0.00000   6.05519  1.83305e-03   752  1308  -0.59  -7.45   4.49  -78.27   -3.01  126.46  3.000 -1.500 0 2 0 2  0.481  0.481   2.70    0.00     0.00    0.00   1    8.00     0    0    0   110 1700.0  1   1    7    0   0.000    0.000    0.000  1  0.000000  0.000000  0.000000
 13   1    1  1 0 2    12  16    59  320  320     0.00000   6.05519  1.83305e-03   753  1310  -0.59  -7.45   4.49  -78.08   -3.01  124.97  3.000 -1.500 0 2 0 2  0.481  0.481   2.70    0.00     0.00    0.00   1    8.00     0    0    0   110 1700.0  1   1    7    0   0.000    0.000    0.000  1  0.000000  0.000000  0.000000
 14   1    1  1 0 2    13  16    59  320  320     0.00000   6.05519  1.83305e-03   780  1356  -0.59  -7.45   4.49  -77.88   -3.01  123.49  3.000 -1.500 0 2 0 2  0.481  0.481   2.70    0.00     0.00    0.00   1    8.00     0    0    0   110 1700.0  1   1    7    0   0.000    0.000    0.000  1  0.000000  0.000000  0.000000
 15   1    1  1 0 2    14  16    59  320  320     0.00000   6.05519  1.83305e-03   760  1320  -0.59  -7.45   4.49  -77.69   -3.01  122.00  3.000 -1.500 0 2 0 2  0.481  0.481   2.70    0.00     0.00    0.00   1    8.00     0    0    0   110 1700.0  1   1    7    0   0.000    0.000    0.000  1  0.000000  0.000000  0.000000
 16   1    1  1 0 2    15  16    59  320  320     0.00000   6.05519  1.83305e-03   831  1445  -0.59  -7.45   4.49  -77.49   -3.01  120.51  3.000 -1.500 0 2 0 2  0.481  0.481   2.70    0.00     0.00    0.00   1    8.00     0    0    0   110 1700.0  1   1    7    0   0.000    0.000    0.000  1  0.000000  0.000000  0.000000
 17   1    1  1 0 2    16  16    59  320  320     0.00000   6.05519  1.83305e-03   874  1519  -0.59  -7.45   4.49  -77.30   -3.01  119.02  3.000 -1.500 0 2 0 2  0.481  0.481   2.70    0.00     0.00    0.00   1    8.00     0    0    0   110 1700.0  1   1    7    0   0.000    0.000    0.000  1  0.000000  0.000000  0.000000
 18   1    1  1 0 2    17  16    59  320  320     0.00000   6.05519  1.83305e-03   925  1608  -0.59  -7.45   4.49  -77.10   -3.01  117.54  3.000 -1.500 0 2 0 2  0.481  0.481   2.70    0.00     0.00    0.00   1    8.00     0    0    0   110 1700.0  1   1    7    0   0.000    0.000    0.000  1  0.000000  0.000000  0.000000
 19   1    1  1 0 2    18  16    59  320  320     0.00000   6.05519  1.83305e-03   940  1633  -0.59  -7.45   4.49  -76.91   -3.01  116.05  3.000 -1.500 0 2 0 2  0.481  0.481   2.70    0.00     0.00    0.00   1    8.00     0    0    0   110 1700.0  1   1    7    0   0.000    0.000    0.000  1  0.000000  0.000000  0.000000
 20   1    1  1 0 2    19  16    59  320  320     0.00000   6.05519  1.83305e-03   956  1661  -0.59  -7.45   4.49  -76.71   -3.01  114.56  3.000 -1.500 0 2 0 2  0.481  0.481   2.70    0.00     0.00    0.00   1    8.00     0    0    0   110 1700.0  1   1    7    0   0.000    0.000    0.000  1  0.000000  0.000000  0.000000
 21   1    1  1 0 2    20  16    59  320  320     0.00000   6.05519  1.83305e-03   931  1619  -0.59  -7.45   4.49  -76.52   -3.01  113.08  3.000 -1.500 0 2 0 2  0.481  0.481   2.70    0.00     0.00    0.00   1    8.00     0    0    0   110 1700.0  1   1    7    0   0.000    0.000    0.000  1  0.000000  0.000000  0.000000
 22   1    1  1 0 2    21  16    59  320  320     0.00000   6.05519  1.83305e-03   921  1602  -0.59  -7.45   4.49  -76.32   -3.01  111.59  3.000 -1.500 0 2 0 2  0.481  0.481   2.70    0.00     0.00    0.00   1    8.00     0    0    0   110 1700.0  1   1    7    0   0.000    0.000    0.000  1  0.000000  0.000000  0.000000
 23   1    1  1 0 2    22  16    59  320  320     0.00000   6.05519  1.83305e-03   904  1571  -0.59  -7.45   4.49  -76.13   -3.01  110.10  3.000 -1.500 0 2 0 2  0.481  0.481   2.70    0.00     0.00    0.00   1    8.00     0    0    0   110 1700.0  1   1    7    0   0.000    0.000    0.000  1  0.000000  0.000000  0.000000
 24   1    1  1 0 2    23  16    59  320  320     0.00000   6.05519  1.83305e-03   885  1538  -0.59  -7.45   4.49  -75.93   -3.01  108.61  3.000 -1.500 0 2 0 2  0.481  0.481   2.70    0.00     0.00    0.00   1    8.00     0    0    0   110 1700.0  1   1    7    0   0.000    0.000    0.000  1  0.000000  0.000000  0.000000
 25   1    1  1 0 2    24  16    59  320  320     0.00000   6.05519  1.83305e-03   876  1523  -0.59  -7.45   4.49  -75.74   -3.01  107.13  3.000 -1.500 0 2 0 2  0.481  0.481   2.70    0.00     0.00    0.00   1    8.00     0    0    0   110 1700.0  1   1    7    0   0.000    0.000    0.000  1  0.000000  0.000000  0.000000
 26   1    1  1 0 2    25  16    59  320  320     0.00000   6.05519  1.83305e-03   895  1555  -0.59  -7.45   4.49  -75.54   -3.01  105.64  3.000 -1.500 0 2 0 2  0.481  0.481   2.70    0.00     0.00    0.00   1    8.00     0    0    0   110 1700.0  1   1    7    0   0.000    0.000    0.000  1  0.000000  0.000000  0.000000
 27   1    1  1 0 2    26  16    59  320  320     0.00000   6.05519  1.83305e-03   904  1571  -0.59  -7.45   4.49  -75.35   -3.01  104.15  3.000 -1.500 0 2 0 2  0.481  0.481   2.70    0.00     0.00    0.00   1    8.00     0    0    0   110 1700.0  1   1    7    0   0.000    0.000    0.000  1  0.000000  0.000000  0.000000
 28   1    1  1 0 2    27  16    59  320  320     0.00000   6.05519  1.83305e-03   965  1677  -0.59  -7.45   4.49  -75.15   -3.01  102.66  3.000 -1.500 0 2 0 2  0.481  0.481   2.70    0.00     0.00    0.00   1    8.00     0    0    0   110 1700.0  1   1    7    0   0.000    0.000    0.000  1  0.000000  0.000000  0.000000
 29   1    1  1 0 2    28  16    59  320  320     0.00000   6.05519  1.83305e-03  1040  1809  -0.59  -7.45   4.49  -74.96   -3.01  101.18  3.000 -1.500 0 2 0 2  0.481  0.481   2.70    0.00     0.00    0.00   1    8.00     0    0    0   110 1700.0  1   1    7    0   0.000    0.000    0.000  1  0.000000  0.000000  0.000000
 30   1    1  1 0 2    29  16    59  320  320     0.00000   6.05519  1.83305e-03  1113  1935  -0.59  -7.45   4.49  -74.76   -3.01   99.69  3.000 -1.500 0 2 0 2  0.481  0.481   2.70    0.00     0.00    0.00   1    8.00     0    0    0   110 1700.0  1   1    7    0   0.000    0.000    0.000  1  0.000000  0.000000  0.000000
 31   1    1  1 0 2    30  16    59  320  320     0.00000   6.05519  1.83305e-03  1144  1989  -0.59  -7.45   4.49  -74.57   -3.01   98.20  3.000 -1.500 0 2 0 2  0.481  0.481   2.70    0.00     0.00    0.00   1    8.00     0    0    0   110 1700.0  1   1    7    0   0.000    0.000    0.000  1  0.000000  0.000000  0.000000
 32   1    1  1 0 2    31  16    59  320  320     0.00000   6.05519  1.83305e-03  1125  1956  -0.59  -7.45   4.49  -74.37   -3.01   96.72  3.000 -1.500 0 2 0 2  0.481  0.481   2.70    0.00     0.00    0.00   1    8.00     0    0    0   110 1700.0  1   1    7    0   0.000    0.000    0.000  1  0.000000  0.000000  0.000000
 33   1    1  1 0 2    32  16    59  320  320     0.00000   6.05519  1.83305e-03  1071  1862  -0.59  -7.45   4.49  -74.18   -3.01   95.23  3.000 -1.500 0 2 0 2  0.481  0.481   2.70    0.00     0.00    0.00   1    8.00     0    0    0   110 1700.0  1   1    7    0   0.000    0.000    0.000  1  0.000000  0.000000  0.000000
 34   1    1  1 0 2    33  16    59  320  320     0.00000   6.05519  1.83305e-03  1070  1860  -0.59  -7.45   4.49  -73.98   -3.01   93.74  3.000 -1.500 0 2 0 2  0.481  0.481   2.70    0.00     0.00    0.00   1    8.00     0    0    0   110 1700.0  1   1    7    0   0.000    0.000    0.000  1  0.000000  0.000000  0.000000
 35   1    1  1 0 2    34  16    59  320  320     0.00000   6.05519  1.83305e-03  1020  1773  -0.59  -7.45   4.49  -73.79   -3.01   92.25  3.000 -1.500 0 2 0 2  0.481  0.481   2.70    0.00     0.00    0.00   1    8.00     0    0    0   110 1700.0  1   1    7    0   0.000    0.000    0.000  1  0.000000  0.000000  0.000000
 36   1    1  1 0 2    35  16    59  320  320     0.00000   6.05519  1.83305e-03   966  1680  -0.59  -7.45   4.49  -73.59   -3.01   90.77  3.000 -1.500 0 2 0 2  0.481  0.481   2.70    0.00     0.00    0.00   1    8.00     0    0    0   110 1700.0  1   1    7    0   0.000    0.000    0.000  1  0.000000  0.000000  0.000000
 37   1    1  1 0 2    36  16    59  320  320     0.00000   6.05519  1.83305e-03   952  1655  -0.59  -7.45   4.49  -73.40   -3.00   89.28  3.000 -1.500 0 2 0 2  0.481  0.481   2.70    0.00     0.00    0.00   1    8.00     0    0    0   110 1700.0  1   1    7    0   0.000    0.000    0.000  1  0.000000  0.000000  0.000000
 38   1    1  1 0 2    37  16    59  320  320     0.00000   6.05519  1.83305e-03   943  1639  -0.59  -7.45   4.49  -73.20   -3.00   87.79  3.000 -1.500 0 2 0 2  0.481  0.481   2.70    0.00     0.00    0.00   1    8.00     0    0    0   110 1700.0  1   1    7    0   0.000    0.000    0.000  1  0.000000  0.000000  0.000000
 39   1    1  1 0 2    38  16    59  320  320     0.00000   6.05519  1.83305e-03   929  1615  -0.59  -7.45   4.49  -73.01   -3.00   86.30  3.000 -1.500 0 2 0 2  0.481  0.481   2.70    0.00     0.00    0.00   1    8.00     0    0    0   110 1700.0  1   1    7    0   0.000    0.000    0.000  1  0.000000  0.000000  0.000000
 40   1    1  1 0 2    39  16    59  320  320     0.00000   6.05519  1.83305e-03   950  1651  -0.59  -7.45   4.49  -72.81   -3.00   84.82  3.000 -1.500 0 2 0 2  0.481  0.481   2.70    0.00     0.00    0.00   1    8.00     0    0    0   110 1700.0  1   1    7    0   0.000    0.000    0.000  1  0.000000  0.000000  0.000000
 41   1    1  1 0 2    40  16    59  320  320     0.00000   6.05519  1.83305e-03  1013  1761  -0.59  -7.45   4.49  -72.62   -3.00   83.33  3.000 -1.500 0 2 0 2  0.481  0.481   2.70    0.00     0.00    0.00   1    8.00     0    0    0   110 1700.0  1   1    7    0   0.000    0.000    0.000  1  0.000000  0.000000  0.000000
 42   1    1  1 0 2    41  16    59  320  320     0.00000   6.05519  1.83305e-03   984  1710  -0.59  -7.45   4.49  -72.42   -3.00   81.84  3.000 -1.500 0 2 0 2  0.481  0.481   2.70    0.00     0.00    0.00   1    8.00     0    0    0   110 1700.0  1   1    7    0   0.000    0.000    0.000  1  0.000000  0.000000  0.000000
 43   1    1  1 0 2    42  16    59  320  320     0.00000   6.05519  1.83305e-03   956  1661  -0.59  -7.45   4.49  -72.23   -3.00   80.36  3.000 -1.500 0 2 0 2  0.481  0.481   2.70    0.00     0.00    0.00   1    8.00     0    0    0   110 1700.0  1   1    7    0   0.000    0.000    0.000  1  0.000000  0.000000  0.000000
 44   1    1  1 0 2    43  16    59  320  320     0.00000   6.05519  1.83305e-03   975  1696  -0.59  -7.45   4.49  -72.03   -3.00   78.87  3.000 -1.500 0 2 0 2  0.481  0.481   2.70    0.00     0.00    0.00   1    8.00     0    0    0   110 1700.0  1   1    7    0   0.000    0.000    0.000  1  0.000000  0.000000  0.000000
 45   1    1  1 0 2    44  16    59  320  320     0.00000   6.05519  1.83305e-03   969  1685  -0.59  -7.45   4.49  -71.84   -3.00   77.38  3.000 -1.500 0 2 0 2  0.481  0.481   2.70    0.00     0.00    0.00   1    8.00     0    0    0   110 1700.0  1   1    7    0   0.000    0.000    0.000  1  0.000000  0.000000  0.000000
 46   1    1  1 0 2    45  16    59  320  320     0.00000   6.05519  1.83305e-03   941  1635  -0.59  -7.45   4.49  -71.64   -3.00   75.89  3.000 -1.500 0 2 0 2  0.481  0.481   2.70    0.00     0.00    0.00   1    8.00     0    0    0   110 1700.0  1   1    7    0   0.000    0.000    0.000  1  0.000000  0.000000  0.000000
 47   1    1  1 0 2    46  16    59  320  320     0.00000   6.05519  1.83305e-03   926  1609  -0.59  -7.45   4.49  -71.44   -3.00   74.41  3.000 -1.500 0 2 0 2  0.481  0.481   2.70    0.00     0.00    0.00   1    8.00     0    0    0   110 1700.0  1   1    7    0   0.000    0.000    0.000  1  0.000000  0.000000  0.000000
 48   1    1  1 0 2    47  16    59  320  320     0.00000   6.05519  1.83305e-03   928  1613  -0.59  -7.45   4.49  -71.25   -3.00   72.92  3.000 -1.500 0 2 0 2  0.481  0.481   2.70    0.00     0.00    0.00   1    8.00     0    0    0   110 1700.0  1   1    7    0   0.000    0.000    0.000  1  0.000000  0.000000  0.000000
 49   1    1  1 0 2    48  16    59  320  320     0.00000   6.05519  1.83305e-03   905  1572  -0.59  -7.45   4.49  -71.05   -3.00   71.43  3.000 -1.500 0 2 0 2  0.481  0.481   2.70    0.00     0.00    0.00   1    8.00     0    0    0   110 1700.0  1   1    7    0   0.000    0.000    0.000  1  0.000000  0.000000  0.000000
 50   1    1  1 0 2    49  16    59  320  320     0.00000   6.05519  1.83305e-03   902  1568  -0.59  -7.45   4.49  -70.86   -3.00   69.94  3.000 -1.500 0 2 0 2  0.481  0.481   2.70    0.00     0.00    0.00   1    8.00     0    0    0   110 1700.0  1   1    7    0   0.000    0.000    0.000  1  0.000000  0.000000  0.000000
 51   1    1  1 0 2    50  16    59  320  320     0.00000   6.05519  1.83305e-03   927  1611  -0.59  -7.45   4.49  -70.66   -3.00   68.46  3.000 -1.500 0 2 0 2  0.481  0.481   2.70    0.00     0.00    0.00   1    8.00     0    0    0   110 1700.0  1   1    7    0   0.000    0.000    0.000  1  0.000000  0.000000  0.000000
 52   1    1  1 0 2    51  16    59  320  320     0.00000   6.05519  1.83305e-03   954  1658  -0.59  -7.45   4.49  -70.47   -3.00   66.97  3.000 -1.500 0 2 0 2  0.481  0.481   2.70    0.00     0.00    0.00   1    8.00     0    0    0   110 1700.0  1   1    7    0   0.000    0.000    0.000  1  0.000000  0.000000  0.000000
 53   1    1  1 0 2    52  16    59  320  320     0.00000   6.05519  1.83305e-03   914  1589  -0.59  -7.45   4.49  -70.27   -3.00   65.48  3.000 -1.500 0 2 0 2  0.481  0.481   2.70    0.00     0.00    0.00   1    8.00     0    0    0   110 1700.0  1   1    7    0   0.000    0.000    0.000  1  0.000000  0.000000  0.000000
 54   1    1  1 0 2    53  16    59  320  320     0.00000   6.05519  1.83305e-03   922  1603  -0.59  -7.45   4.49  -70.08   -3.00   64.00  3.000 -1.500 0 2 0 2  0.481  0.481   2.70    0.00     0.00    0.00   1    8.00     0    0    0   110 1700.0  1   1    7    0   0.000    0.000    0.000  1  0.000000  0.000000  0.000000
 55   1    1  1 0 2    54  16    59  320  320     0.00000   6.05519  1.83305e-03   893  1552  -0.59  -7.45   4.49  -69.88   -3.00   62.51  3.000 -1.500 0 2 0 2  0.481  0.481   2.70    0.00     0.00    0.00   1    8.00     0    0    0   110 1700.0  1   1    7    0   0.000    0.000    0.000  1  0.000000  0.000000  0.000000
 56   1    1  1 0 2    55  16    59  320  320     0.00000   6.05519  1.83305e-03   876  1523  -0.59  -7.45   4.49  -69.69   -3.00   61.02  3.000 -1.500 0 2 0 2  0.481  0.481   2.70    0.00     0.00    0.00   1    8.00     0    0    0   110 1700.0  1   1    7    0   0.000    0.000    0.000  1  0.000000  0.000000  0.000000
 57   1    1  1 0 2    56  16    59  320  320     0.00000   6.05519  1.83305e-03   824  1433  -0.59  -7.45   4.49  -69.49   -3.00   59.53  3.000 -1.500 0 2 0 2  0.481  0.481   2.70    0.00     0.00    0.00   1    8.00     0    0    0   110 1700.0  1   1    7    0   0.000    0.000    0.000  1  0.000000  0.000000  0.000000
 58   1    1  1 0 2    57  16    59  320  320     0.00000   6.05519  1.83305e-03   783  1362  -0.59  -7.45   4.49  -69.30   -3.00   58.05  3.000 -1.500 0 2 0 2  0.481  0.481   2.70    0.00     0.00    0.00   1    8.00     0    0    0   110 1700.0  1   1    7    0   0.000    0.000    0.000  1  0.000000  0.000000  0.000000
 59   1    1  1 0 2    58  16    59  320  320     0.00000   6.05519  1.83305e-03   754  1311  -0.59  -7.45   4.49  -69.10   -3.00   56.56  3.000 -1.500 0 2 0 2  0.481  0.481   2.70    0.00     0.00    0.00   1    8.00     0    0    0   110 1700.0  1   1    7    0   0.000    0.000    0.000  1  0.000000  0.000000  0.000000
 60   1    1  1 0 2    59  16    59  320  320     0.00000   6.05519  1.83305e-03   740  1287  -0.59  -7.45   4.49  -68.91   -3.00   55.07  3.000 -1.500 0 2 0 2  0.481  0.481   2.70    0.00     0.00    0.00   1    8.00     0    0    0   110 1700.0  1   1    7    0   0.000    0.000    0.000  1  0.000000  0.000000  0.000000
 61   1    1  1 0 2    60  16    59  320  320     0.00000   6.05519  1.83305e-03   722  1256  -0.59  -7.45   4.49  -68.71   -3.00   53.59  3.000 -1.500 0 2 0 2  0.481  0.481   2.70    0.00     0.00    0.00   1    8.00     0    0    0   110 1700.0  1   1    7    0   0.000    0.000    0.000  1  0.000000  0.000000  0.000000
 62   1    1  1 0 2    61  16    59  320  320     0.00000   6.05519  1.83305e-03   637  1108  -0.59  -7.45   4.49  -68.52   -3.00   52.10  3.000 -1.500 0 2 0 2  0.481  0.481   2.70    0.00     0.00    0.00   1    8.00     0    0    0   110 1700.0  1   1    7    0   0.000    0.000    0.000  1  0.000000  0.000000  0.000000
 63   1    1  1 0 2    62  16    59  320  320     0.00000   6.05519  1.83305e-03   573   997  -0.59  -7.45   4.49  -68.32   -3.00   50.61  3.000 -1.500 0 2 0 2  0.481  0.481   2.70    0.00     0.00    0.00   1    8.00     0    0    0   110 1700.0  1   1    7    0   0.000    0.000    0.000  1  0.000000  0.000000  0.000000
 64   1    1  1 0 2    63  16    59  320  320     0.00000   6.05519  1.83305e-03   433   752  -0.59  -7.45   4.49  -68.13   -3.00   49.12  3.000 -1.500 0 2 0 2  0.481  0.481   2.70    0.00     0.00    0.00   1    8.00     0    0    0   110 1700.0  1   1    7    0   0.000    0.000    0.000  1  0.000000  0.000000  0.000000
 65   1    1  1 0 2    64  16    59  320  320     0.00000   6.05519  1.83305e-03   342   594  -0.59  -7.45   4.49  -67.93   -3.00   47.64  3.000 -1.500 0 2 0 2  0.481  0.481   2.70    0.00     0.00    0.00   1    8.00     0    0    0   110 1700.0  1   1    7    0   0.000    0.000    0.000  1  0.000000  0.000000  0.000000
 66   1    1  1 0 2    65  16    59  320  320     0.00000   6.05519  1.83305e-03   298   519  -0.59  -7.45   4.49  -67.74   -3.00   46.15  3.000 -1.500 0 2 0 2  0.481  0.481   2.70    0.00     0.00    0.00   1    8.00     0    0    0   110 1700.0  1   1    7    0   0.000    0.000    0.000  1  0.000000  0.000000  0.000000
  1   2    1  1 0 2    66  16    59  320  320     0.00000   8.36825  1.32640e-03   323   562  -0.59  -7.45   4.49  -80.42   -3.01  142.82  3.000 -1.500 0 2 0 2  0.481  0.481  10.00    0.00     0.00    0.00   1    8.00     0    0    0   110 1700.0  1   1   11    0   0.000    0.000    0.000  1  0.000000  0.000000  0.000000
  2   2    1  1 0 2    67  16    59  320  320     0.00000   8.36825  1.32640e-03   414   720  -0.59  -7.45   4.49  -80.22   -3.01  141.33  3.000 -1.500 0 2 0 2  0.481  0.481  10.00    0.00     0.00    0.00   1    8.00     0    0    0   110 1700.0  1   1   11    0   0.000    0.000    0.000  1  0.000000  0.000000  0.000000
  3   2    1  1 0 2    68  16    59  320  320     0.00000   8.36825  1.32640e-03   491   854  -0.59  -7.45   4.49  -80.03   -3.01  139.85  3.000 -1.500 0 2 0 2  0.481  0.481  10.00    0.00     0.00    0.00   1    8.00     0    0    0   110 1700.0  1   1   11    0   0.000    0.000    0.000  1  0.000000  0.000000  0.000000
  4   2    1  1 0 2    69  16    59  320  320     0.00000   8.36825  1.32640e-03   567   986  -0.59  -7.45   4.49  -79.83   -3.01  138.36  3.000 -1.500 0 2 0 2  0.481  0.481  10.00    0.00     0.00    0.00   1    8.00     0    0    0   110 1700.0  1   1   11    0   0.000    0.000    0.000  1  0.000000  0.000000  0.000000
  5   2    1  1 0 2    70  16    59  320  320     0.00000   8.36825  1.32640e-03   611  1062  -0.59  -7.45   4.49  -79.64   -3.01  136.87  3.000 -1.500 0 2 0 2  0.481  0.481  10.00    0.00     0.00    0.00   1    8.00     0    0    0   110 1700.0  1   1   11    0   0.000    0.000    0.000  1  0.000000  0.000000  0.000000
  6   2    1  1 0 2    71  16    59  320  320     0.00000   8.36825  1.32640e-03   637  1107  -0.59  -7.45   4.49  -79.44   -3.01  135.38  3.000 -1.500 0 2 0 2  0.481  0.481  10.00    0.00     0.00    0.00   1    8.00     0    0    0   110 1700.0  1   1   11    0   0.000    0.000    0.000  1  0.000000  0.000000  0.000000
  7   2    1  1 0 2    72  16    59  320  320     0.00000   8.36825  1.32640e-03   638  1109  -0.59  -7.45   4.49  -79.25   -3.01  133.90  3.000 -1.500 0 2 0 2  0.481  0.481  10.00    0.00     0.00    0.00   1    8.00     0    0    0   110 1700.0  1   1   11    0   0.000    0.000    0.000  1  0.000000  0.000000  0.000000
  8   2    1  1 0 2    73  16    59  320  320     0.00000   8.36825  1.32640e-03   623  1083  -0.59  -7.45   4.49  -79.05   -3.01  132.41  3.000 -1.500 0 2 0 2  0.481  0.481  10.00    0.00     0.00    0.00   1    8.00     0    0    0   110 1700.0  1   1   11    0   0.000    0.000    0.000  1  0.000000  0.000000  0.000000
  9   2    1  1 0 2    74  16    59  320  320     0.00000   8.36825  1.32640e-03   577  1002  -0.59  -7.45   4.49  -78.86   -3.01  130.92  3.000 -1.500 0 2 0 2  0.481  0.481  10.00    0.00     0.00    0.00   1    8.00     0    0    0   110 1700.0  1   1   11    0   0.000    0.000    0.000  1  0.000000  0.000000  0.000000
