# === DATA DESCRIPTION FILE ======================================================
#
# CAUTION - Investigational device.
# Limited by Federal Law to investigational use.
#
# Dataset name: John_Doe_WIP_3D_WATSf_ISO
#
# CLINICAL TRYOUT             Research image export tool     V4.2
#
# === GENERAL INFORMATION ========================================================
#
.    Patient name                       :   John_Doe
.    Examination name                   :   LEFT KNEE
.    Protocol name                      :   WIP T2Q_Q_12q6.4_2mm
.    Examination date/time              :   2020.04.11 / 10:15:10
.    Series Type                        :   Image   MRSERIES
.    Acquisition nr                     :   7
.    Reconstruction nr                  :   1
.    Scan Duration [sec]                :   236
.    Max. number of cardiac phases      :   1
.    Max. number of echoes              :   12
.    Max. number of slices/locations    :   46
.    Max. number of dynamics            :   1
.    Max. number of mixes               :   1
.    Patient position                   :   Feet First Supine
.    Preparation direction              :   Anterior-Posterior
.    Technique                          :   TSE
.    Scan resolution  (x, y)            :   232  233
.    Scan mode                          :   MS
.    Repetition time [ms]               :   2000.000  
.    FOV (ap,fh,rl) [mm]                :   121.250  140.000  92.000
.    Water Fat shift [pixels]           :   1.250
.    Angulation midslice(ap,fh,rl)[degr]:   0.000  2.858  5.023
.    Off Centre midslice(ap,fh,rl) [mm] :   -64.979  -0.024  87.475
.    Flow compensation <0=no 1=yes> ?   :   0
.    Presaturation     <0=no 1=yes> ?   :   0
.    Phase encoding velocity [cm/sec]   :   0.000000  0.000000  0.000000
.    MTC               <0=no 1=yes> ?   :   0
.    SPIR              <0=no 1=yes> ?   :   0
.    EPI factor        <0,1=no EPI>     :   1
.    Dynamic scan      <0=no 1=yes> ?   :   0
.    Diffusion         <0=no 1=yes> ?   :   0
.    Diffusion echo time [ms]           :   0.0000
.    Max. number of diffusion values    :   1
.    Max. number of gradient orients    :   1
.    Number of label types   <0=no ASL> :   0
#
# === PIXEL VALUES =============================================================
#  PV = pixel value in REC file, FP = floating point value, DV = displayed value on console
#  RS = rescale slope,           RI = rescale intercept,    SS = scale slope
#  DV = PV * RS + RI             FP = DV / (RS * SS)
#
# === IMAGE INFORMATION DEFINITION =============================================
#  The rest of this file contains ONE line per image, this line contains the following information:
#
#  slice number                             (integer)
#  echo number                              (integer)
#  dynamic scan number                      (integer)
#  cardiac phase number                     (integer)
#  image_type_mr                            (integer)
#  scanning sequence                        (integer)
#  index in REC file (in images)            (integer)
#  image pixel size (in bits)               (integer)
#  scan percentage                          (integer)
#  recon resolution (x y)                   (2*integer)
#  rescale intercept                        (float)
#  rescale slope                            (float)
#  scale slope                              (float)
#  window center                            (integer)
#  window width                             (integer)
#  image angulation (ap,fh,rl in degrees )  (3*float)
#  image offcentre (ap,fh,rl in mm )        (3*float)
#  slice thickness (in mm )                 (float)
#  slice gap (in mm )                       (float)
#  image_display_orientation                (integer)
#  slice orientation ( TRA/SAG/COR )        (integer)
#  fmri_status_indication                   (integer)
#  image_type_ed_es  (end diast/end syst)   (integer)
#  pixel spacing (x,y) (in mm)              (2*float)
#  echo_time                                (float)
#  dyn_scan_begin_time                      (float)
#  trigger_time                             (float)
#  diffusion_b_factor                       (float)
#  number of averages                       (integer)
#  image_flip_angle (in degrees)            (float)
#  cardiac frequency   (bpm)                (integer)
#  minimum RR-interval (in ms)              (integer)
#  maximum RR-interval (in ms)              (integer)
#  TURBO factor  <0=no turbo>               (integer)
#  Inversion delay (in ms)                  (float)
#  diffusion b value number    (imagekey!)  (integer)
#  gradient orientation number (imagekey!)  (integer)
#  contrast type                            (string)
#  diffusion anisotropy type                (string)
#  diffusion (ap, fh, rl)                   (3*float)
#  label type (ASL)            (imagekey!)  (integer)
#  Contrast Bolus Agent                     (string)
#  Contrast Bolus Route                     (float)
#  Contrast Bolus Volume                    (string)
#  Contrast Bolus Start Time                (string)
#  Contrast Bolus Total Dose                (float)
#  Contrast Bolus Ingredient                (string)
#  Contrast Bolus Ingredient Concentration  (float)
#
# === IMAGE INFORMATION ==========================================================
#  sl ec  dyn ph ty    idx pix scan% rec size                (re)scale              window        angulation              offcentre        thick   gap   info      spacing     echo     dtime   ttime    diff  avg  flip    freq   RR-int  turbo delay b grad cont anis         diffusion       L.ty  contagent   controute  contvolume  conttime  contdose  contingr  contingrconcen

  1   1    1  1 0 1     0  16   100  448  448     0.00000   2.36850  6.64196e-02  1184  2058   0.00   2.86   5.02  -62.74    0.17  132.42  2.000  0.000 0 2 0 2  0.313  0.313   6.36    0.00     0.00    0.00   1   90.00     0    0    0    12   0.0  1   1    4    0   0.000    0.000    0.000  1  0.000000  0.000000  0.000000
  2   1    1  1 0 1     1  16   100  448  448     0.00000   2.36850  6.64196e-02  1185  2059   0.00   2.86   5.02  -62.84    0.16  130.42  2.000  0.000 0 2 0 2  0.313  0.313   6.36    0.00     0.00    0.00   1   90.00     0    0    0    12   0.0  1   1    4    0   0.000    0.000    0.000  1  0.000000  0.000000  0.000000
  3   1    1  1 0 1     2  16   100  448  448     0.00000   2.36850  6.64196e-02  1145  1990   0.00   2.86   5.02  -62.94    0.15  128.42  2.000  0.000 0 2 0 2  0.313  0.313   6.36    0.00     0.00    0.00   1   90.00     0    0    0    12   0.0  1   1    4    0   0.000    0.000    0.000  1  0.000000  0.000000  0.000000
  4   1    1  1 0 1     3  16   100  448  448     0.00000   2.36850  6.64196e-02  1137  1976   0.00   2.86   5.02  -63.04    0.15  126.43  2.000  0.000 0 2 0 2  0.313  0.313   6.36    0.00     0.00    0.00   1   90.00     0    0    0    12   0.0  1   1    4    0   0.000    0.000    0.000  1  0.000000  0.000000  0.000000
  5   1    1  1 0 1     4  16   100  448  448     0.00000   2.36850  6.64196e-02  1105  1921   0.00   2.86   5.02  -63.14    0.14  124.43  2.000  0.000 0 2 0 2  0.313  0.313   6.36    0.00     0.00    0.00   1   90.00     0    0    0    12   0.0  1   1    4    0   0.000    0.000    0.000  1  0.000000  0.000000  0.000000
  6   1    1  1 0 1     5  16   100  448  448     0.00000   2.36850  6.64196e-02  1092  1898   0.00   2.86   5.02  -63.24    0.13  122.43  2.000  0.000 0 2 0 2  0.313  0.313   6.36    0.00     0.00    0.00   1   90.00     0    0    0    12   0.0  1   1    4    0   0.000    0.000    0.000  1  0.000000  0.000000  0.000000
  7   1    1  1 0 1     6  16   100  448  448     0.00000   2.36850  6.64196e-02  1095  1903   0.00   2.86   5.02  -63.34    0.12  120.43  2.000  0.000 0 2 0 2  0.313  0.313   6.36    0.00     0.00    0.00   1   90.00     0    0    0    12   0.0  1   1    4    0   0.000    0.000    0.000  1  0.000000  0.000000  0.000000
  8   1    1  1 0 1     7  16   100  448  448     0.00000   2.36850  6.64196e-02  1087  1890   0.00   2.86   5.02  -63.44    0.11  118.44  2.000  0.000 0 2 0 2  0.313  0.313   6.36    0.00     0.00    0.00   1   90.00     0    0    0    12   0.0  1   1    4    0   0.000    0.000    0.000  1  0.000000  0.000000  0.000000
  9   1    1  1 0 1     8  16   100  448  448     0.00000   2.36850  6.64196e-02  1099  1911   0.00   2.86   5.02  -63.54    0.10  116.44  2.000  0.000 0 2 0 2  0.313  0.313   6.36    0.00     0.00    0.00   1   90.00     0    0    0    12   0.0  1   1    4    0   0.000    0.000    0.000  1  0.000000  0.000000  0.000000
 10   1    1  1 0 1     9  16   100  448  448     0.00000   2.36850  6.64196e-02  1105  1920   0.00   2.86   5.02  -63.64    0.09  114.44  2.000  0.000 0 2 0 2  0.313  0.313   6.36    0.00     0.00    0.00   1   90.00     0    0    0    12   0.0  1   1    4    0   0.000    0.000    0.000  1  0.000000  0.000000  0.000000
 11   1    1  1 0 1    10  16   100  448  448     0.00000   2.36850  6.64196e-02  1136  1974   0.00   2.86   5.02  -63.74    0.08  112.44  2.000  0.000 0 2 0 2  0.313  0.313   6.36    0.00     0.00    0.00   1   90.00     0    0    0    12   0.0  1   1    4    0   0.000    0.000    0.000  1  0.000000  0.000000  0.000000
 12   1    1  1 0 1    11  16   100  448  448     0.00000   2.36850  6.64196e-02  1151  2001   0.00   2.86   5.02  -63.84    0.08  110.45  2.000  0.000 0 2 0 2  0.313  0.313   6.36    0.00     0.00    0.00   1   90.00     0    0    0    12   0.0  1   1    4    0   0.000    0.000    0.000  1  0.000000  0.000000  0.000000
 13   1    1  1 0 1    12  16   100  448  448     0.00000   2.36850  6.64196e-02  1172  2037   0.00   2.86   5.02  -63.94    0.07  108.45  2.000  0.000 0 2 0 2  0.313  0.313   6.36    0.00     0.00    0.00   1   90.00     0    0    0    12   0.0  1   1    4    0   0.000    0.000    0.000  1  0.000000  0.000000  0.000000
 14   1    1  1 0 1    13  16   100  448  448     0.00000   2.36850  6.64196e-02  1173  2040   0.00   2.86   5.02  -64.04    0.06  106.45  2.000  0.000 0 2 0 2  0.313  0.313   6.36    0.00     0.00    0.00   1   90.00     0    0    0    12   0.0  1   1    4    0   0.000    0.000    0.000  1  0.000000  0.000000  0.000000
 15   1    1  1 0 1    14  16   100  448  448     0.00000   2.36850  6.64196e-02  1196  2079   0.00   2.86   5.02  -64.13    0.05  104.45  2.000  0.000 0 2 0 2  0.313  0.313   6.36    0.00     0.00    0.00   1   90.00     0    0    0    12   0.0  1   1    4    0   0.000    0.000    0.000  1  0.000000  0.000000  0.000000
 16   1    1  1 0 1    15  16   100  448  448     0.00000   2.36850  6.64196e-02  1194  2076   0.00   2.86   5.02  -64.23    0.04  102.46  2.000  0.000 0 2 0 2  0.313  0.313   6.36    0.00     0.00    0.00   1   90.00     0    0    0    12   0.0  1   1    4    0   0.000    0.000    0.000  1  0.000000  0.000000  0.000000
 17   1    1  1 0 1    16  16   100  448  448     0.00000   2.36850  6.64196e-02  1191  2070   0.00   2.86   5.02  -64.33    0.03  100.46  2.000  0.000 0 2 0 2  0.313  0.313   6.36    0.00     0.00    0.00   1   90.00     0    0    0    12   0.0  1   1    4    0   0.000    0.000    0.000  1  0.000000  0.000000  0.000000
 18   1    1  1 0 1    17  16   100  448  448     0.00000   2.36850  6.64196e-02  1195  2077   0.00   2.86   5.02  -64.43    0.02   98.46  2.000  0.000 0 2 0 2  0.313  0.313   6.36    0.00     0.00    0.00   1   90.00     0    0    0    12   0.0  1   1    4    0   0.000    0.000    0.000  1  0.000000  0.000000  0.000000
 19   1    1  1 0 1    18  16   100  448  448     0.00000   2.36850  6.64196e-02  1172  2037   0.00   2.86   5.02  -64.53    0.02   96.46  2.000  0.000 0 2 0 2  0.313  0.313   6.36    0.00     0.00    0.00   1   90.00     0    0    0    12   0.0  1   1    4    0   0.000    0.000    0.000  1  0.000000  0.000000  0.000000
 20   1    1  1 0 1    19  16   100  448  448     0.00000   2.36850  6.64196e-02  1144  1988   0.00   2.86   5.02  -64.63    0.01   94.47  2.000  0.000 0 2 0 2  0.313  0.313   6.36    0.00     0.00    0.00   1   90.00     0    0    0    12   0.0  1   1    4    0   0.000    0.000    0.000  1  0.000000  0.000000  0.000000
 21   1    1  1 0 1    20  16   100  448  448     0.00000   2.36850  6.64196e-02  1126  1957   0.00   2.86   5.02  -64.73   -0.00   92.47  2.000  0.000 0 2 0 2  0.313  0.313   6.36    0.00     0.00    0.00   1   90.00     0    0    0    12   0.0  1   1    4    0   0.000    0.000    0.000  1  0.000000  0.000000  0.000000
 22   1    1  1 0 1    21  16   100  448  448     0.00000   2.36850  6.64196e-02  1095  1904   0.00   2.86   5.02  -64.83   -0.01   90.47  2.000  0.000 0 2 0 2  0.313  0.313   6.36    0.00     0.00    0.00   1   90.00     0    0    0    12   0.0  1   1    4    0   0.000    0.000    0.000  1  0.000000  0.000000  0.000000
 23   1    1  1 0 1    22  16   100  448  448     0.00000   2.36850  6.64196e-02  1087  1890   0.00   2.86   5.02  -64.93   -0.02   88.47  2.000  0.000 0 2 0 2  0.313  0.313   6.36    0.00     0.00    0.00   1   90.00     0    0    0    12   0.0  1   1    4    0   0.000    0.000    0.000  1  0.000000  0.000000  0.000000
 24   1    1  1 0 1    23  16   100  448  448     0.00000   2.36850  6.64196e-02  1070  1860   0.00   2.86   5.02  -65.03   -0.03   86.48  2.000  0.000 0 2 0 2  0.313  0.313   6.36    0.00     0.00    0.00   1   90.00     0    0    0    12   0.0  1   1    4    0   0.000    0.000    0.000  1  0.000000  0.000000  0.000000
 25   1    1  1 0 1    24  16   100  448  448     0.00000   2.36850  6.64196e-02  1073  1866   0.00   2.86   5.02  -65.13   -0.04   84.48  2.000  0.000 0 2 0 2  0.313  0.313   6.36    0.00     0.00    0.00   1   90.00     0    0    0    12   0.0  1   1    4    0   0.000    0.000    0.000  1  0.000000  0.000000  0.000000
 26   1    1  1 0 1    25  16   100  448  448     0.00000   2.36850  6.64196e-02  1059  1841   0.00   2.86   5.02  -65.23   -0.05   82.48  2.000  0.000 0 2 0 2  0.313  0.313   6.36    0.00     0.00    0.00   1   90.00     0    0    0    12   0.0  1   1    4    0   0.000    0.000    0.000  1  0.000000  0.000000  0.000000
 27   1    1  1 0 1    26  16   100  448  448     0.00000   2.36850  6.64196e-02  1061  1845   0.00   2.86   5.02  -65.33   -0.05   80.48  2.000  0.000 0 2 0 2  0.313  0.313   6.36    0.00     0.00    0.00   1   90.00     0    0    0    12   0.0  1   1    4    0   0.000    0.000    0.000  1  0.000000  0.000000  0.000000
 28   1    1  1 0 1    27  16   100  448  448     0.00000   2.36850  6.64196e-02  1054  1832   0.00   2.86   5.02  -65.43   -0.06   78.49  2.000  0.000 0 2 0 2  0.313  0.313   6.36    0.00     0.00    0.00   1   90.00     0    0    0    12   0.0  1   1    4    0   0.000    0.000    0.000  1  0.000000  0.000000  0.000000
 29   1    1  1 0 1    28  16   100  448  448     0.00000   2.36850  6.64196e-02  1052  1829   0.00   2.86   5.02  -65.53   -0.07   76.49  2.000  0.000 0 2 0 2  0.313  0.313   6.36    0.00     0.00    0.00   1   90.00     0    0    0    12   0.0  1   1    4    0   0.000    0.000    0.000  1  0.000000  0.000000  0.000000
 30   1    1  1 0 1    29  16   100  448  448     0.00000   2.36850  6.64196e-02  1038  1804   0.00   2.86   5.02  -65.62   -0.08   74.49  2.000  0.000 0 2 0 2  0.313  0.313   6.36    0.00     0.00    0.00   1   90.00     0    0    0    12   0.0  1   1    4    0   0.000    0.000    0.000  1  0.000000  0.000000  0.000000
 31   1    1  1 0 1    30  16   100  448  448     0.00000   2.36850  6.64196e-02  1027  1786   0.00   2.86   5.02  -65.72   -0.09   72.49  2.000  0.000 0 2 0 2  0.313  0.313   6.36    0.00     0.00    0.00   1   90.00     0    0    0    12   0.0  1   1    4    0   0.000    0.000    0.000  1  0.000000  0.000000  0.000000
 32   1    1  1 0 1    31  16   100  448  448     0.00000   2.36850  6.64196e-02  1011  1758   0.00   2.86   5.02  -65.82   -0.10   70.50  2.000  0.000 0 2 0 2  0.313  0.313   6.36    0.00     0.00    0.00   1   90.00     0    0    0    12   0.0  1   1    4    0   0.000    0.000    0.000  1  0.000000  0.000000  0.000000
 33   1    1  1 0 1    32  16   100  448  448     0.00000   2.36850  6.64196e-02   993  1726   0.00   2.86   5.02  -65.92   -0.11   68.50  2.000  0.000 0 2 0 2  0.313  0.313   6.36    0.00     0.00    0.00   1   90.00     0    0    0    12   0.0  1   1    4    0   0.000    0.000    0.000  1  0.000000  0.000000  0.000000
 34   1    1  1 0 1    33  16   100  448  448     0.00000   2.36850  6.64196e-02   974  1694   0.00   2.86   5.02  -66.02   -0.12   66.50  2.000  0.000 0 2 0 2  0.313  0.313   6.36    0.00     0.00    0.00   1   90.00     0    0    0    12   0.0  1   1    4    0   0.000    0.000    0.000  1  0.000000  0.000000  0.000000
 35   1    1  1 0 1    34  16   100  448  448     0.00000   2.36850  6.64196e-02   993  1725   0.00   2.86   5.02  -66.12   -0.12   64.50  2.000  0.000 0 2 0 2  0.313  0.313   6.36    0.00     0.00    0.00   1   90.00     0    0    0    12   0.0  1   1    4    0   0.000    0.000    0.000  1  0.000000  0.000000  0.000000
 36   1    1  1 0 1    35  16   100  448  448     0.00000   2.36850  6.64196e-02   993  1726   0.00   2.86   5.02  -66.22   -0.13   62.51  2.000  0.000 0 2 0 2  0.313  0.313   6.36    0.00     0.00    0.00   1   90.00     0    0    0    12   0.0  1   1    4    0   0.000    0.000    0.000  1  0.000000  0.000000  0.000000
 37   1    1  1 0 1    36  16   100  448  448     0.00000   2.36850  6.64196e-02   971  1687   0.00   2.86   5.02  -66.32   -0.14   60.51  2.000  0.000 0 2 0 2  0.313  0.313   6.36    0.00     0.00    0.00   1   90.00     0    0    0    12   0.0  1   1    4    0   0.000    0.000    0.000  1  0.000000  0.000000  0.000000
 38   1    1  1 0 1    37  16   100  448  448     0.00000   2.36850  6.64196e-02   938  1630   0.00   2.86   5.02  -66.42   -0.15   58.51  2.000  0.000 0 2 0 2  0.313  0.313   6.36    0.00     0.00    0.00   1   90.00     0    0    0    12   0.0  1   1    4    0   0.000    0.000    0.000  1  0.000000  0.000000  0.000000
 39   1    1  1 0 1    38  16   100  448  448     0.00000   2.36850  6.64196e-02   920  1599   0.00   2.86   5.02  -66.52   -0.16   56.51  2.000  0.000 0 2 0 2  0.313  0.313   6.36    0.00     0.00    0.00   1   90.00     0    0    0    12   0.0  1   1    4    0   0.000    0.000    0.000  1  0.000000  0.000000  0.000000
 40   1    1  1 0 1    39  16   100  448  448     0.00000   2.36850  6.64196e-02   919  1597   0.00   2.86   5.02  -66.62   -0.17   54.52  2.000  0.000 0 2 0 2  0.313  0.313   6.36    0.00     0.00    0.00   1   90.00     0    0    0    12   0.0  1   1    4    0   0.000    0.000    0.000  1  0.000000  0.000000  0.000000
 41   1    1  1 0 1    40  16   100  448  448     0.00000   2.36850  6.64196e-02   907  1576   0.00   2.86   5.02  -66.72   -0.18   52.52  2.000  0.000 0 2 0 2  0.313  0.313   6.36    0.00     0.00    0.00   1   90.00     0    0    0    12   0.0  1   1    4    0   0.000    0.000    0.000  1  0.000000  0.000000  0.000000
 42   1    1  1 0 1    41  16   100  448  448     0.00000   2.36850  6.64196e-02   910  1583   0.00   2.86   5.02  -66.82   -0.19   50.52  2.000  0.000 0 2 0 2  0.313  0.313   6.36    0.00     0.00    0.00   1   90.00     0    0    0    12   0.0  1   1    4    0   0.000    0.000    0.000  1  0.000000  0.000000  0.000000
 43   1    1  1 0 1    42  16   100  448  448     0.00000   2.36850  6.64196e-02   916  1592   0.00   2.86   5.02  -66.92   -0.19   48.52  2.000  0.000 0 2 0 2  0.313  0.313   6.36    0.00     0.00    0.00   1   90.00     0    0    0    12   0.0  1   1    4    0   0.000    0.000    0.000  1  0.000000  0.000000  0.000000
 44   1    1  1 0 1    43  16   100  448  448     0.00000   2.36850  6.64196e-02   912  1585   0.00   2.86   5.02  -67.02   -0.20   46.53  2.000  0.000 0 2 0 2  0.313  0.313   6.36    0.00     0.00    0.00   1   90.00     0    0    0    12   0.0  1   1    4    0   0.000    0.000    0.000  1  0.000000  0.000000  0.000000
 45   1    1  1 0 1    44  16   100  448  448     0.00000   2.36850  6.64196e-02   926  1609   0.00   2.86   5.02  -67.11   -0.21   44.53  2.000  0.000 0 2 0 2  0.313  0.313   6.36    0.00     0.00    0.00   1   90.00     0    0    0    12   0.0  1   1    4    0   0.000    0.000    0.000  1  0.000000  0.000000  0.000000
 46   1    1  1 0 1    45  16   100  448  448     0.00000   2.36850  6.64196e-02   937  1629   0.00   2.86   5.02  -67.21   -0.22   42.53  2.000  0.000 0 2 0 2  0.313  0.313   6.36    0.00     0.00    0.00   1   90.00     0    0    0    12   0.0  1   1    4    0   0.000    0.000    0.000  1  0.000000  0.000000  0.000000
  1   2    1  1 0 1    46  16   100  448  448     0.00000   2.36850  6.64196e-02  1306  2270   0.00   2.86   5.02  -62.74    0.17  132.42  2.000  0.000 0 2 0 2  0.313  0.313  12.72    0.00     0.00    0.00   1   90.00     0    0    0    12   0.0  1   1    4    0   0.000    0.000    0.000  1  0.000000  0.000000  0.000000
  2   2    1  1 0 1    47  16   100  448  448     0.00000   2.36850  6.64196e-02  1301  2262   0.00   2.86   5.02  -62.84    0.16  130.42  2.000  0.000 0 2 0 2  0.313  0.313  12.72    0.00     0.00    0.00   1   90.00     0    0    0    12   0.0  1   1    4    0   0.000    0.000    0.000  1  0.000000  0.000000  0.000000
  3   2    1  1 0 1    48  16   100  448  448     0.00000   2.36850  6.64196e-02  1255  2182   0.00   2.86   5.02  -62.94    0.15  128.42  2.000  0.000 0 2 0 2  0.313  0.313  12.72    0.00     0.00    0.00   1   90.00     0    0    0    12   0.0  1   1    4    0   0.000    0.000    0.000  1  0.000000  0.000000  0.000000
  4   2    1  1 0 1    49  16   100  448  448     0.00000   2.36850  6.64196e-02  1250  2174   0.00   2.86   5.02  -63.04    0.15  126.43  2.000  0.000 0 2 0 2  0.313  0.313  12.72    0.00     0.00    0.00   1   90.00     0    0    0    12   0.0  1   1    4    0   0.000    0.000    0.000  1  0.000000  0.000000  0.000000
  5   2    1  1 0 1    50  16   100  448  448     0.00000   2.36850  6.64196e-02  1219  2120   0.00   2.86   5.02  -63.14    0.14  124.43  2.000  0.000 0 2 0 2  0.313  0.313  12.72    0.00     0.00    0.00   1   90.00     0    0    0    12   0.0  1   1    4    0   0.000    0.000    0.000  1  0.000000  0.000000  0.000000
  6   2    1  1 0 1    51  16   100  448  448     0.00000   2.36850  6.64196e-02  1213  2109   0.00   2.86   5.02  -63.24    0.13  122.43  2.000  0.000 0 2 0 2  0.313  0.313  12.72    0.00     0.00    0.00   1   90.00     0    0    0    12   0.0  1   1    4    0   0.000    0.000    0.000  1  0.000000  0.000000  0.000000
  7   2    1  1 0 1    52  16   100  448  448     0.00000   2.36850  6.64196e-02  1217  2116   0.00   2.86   5.02  -63.34    0.12  120.43  2.000  0.000 0 2 0 2  0.313  0.313  12.72    0.00     0.00    0.00   1   90.00     0    0    0    12   0.0  1   1    4    0   0.000    0.000    0.000  1  0.000000  0.000000  0.000000
  8   2    1  1 0 1    53  16   100  448  448     0.00000   2.36850  6.64196e-02  1212  2107   0.00   2.86   5.02  -63.44    0.11  118.44  2.000  0.000 0 2 0 2  0.313  0.313  12.72    0.00     0.00    0.00   1   90.00     0    0    0    12   0.0  1   1    4    0   0.000    0.000    0.000  1  0.000000  0.000000  0.000000
  9   2    1  1 0 1    54  16   100  448  448     0.00000   2.36850  6.64196e-02  1224  2128   0.00   2.86   5.02  -63.54    0.10  116.44  2.000  0.000 0 2 0 2  0.313  0.313  12.72    0.00     0.00    0.00   1   90.00     0    0    0    12   0.0  1   1    4    0   0.000    0.000    0.000  1  0.000000  0.000000  0.000000
 10   2    1  1 0 1    55  16   100  448  448     0.00000   2.36850  6.64196e-02  1228  2135   0.00   2.86   5.02  -63.64    0.09  114.44  2.000  0.000 0 2 0 2  0.313  0.313  12.72    0.00     0.00    0.00   1   90.00     0    0    0    12   0.0  1   1    4    0   0.000    0.000    0.000  1  0.000000  0.000000  0.000000
 11   2    1  1 0 1    56  16   100  448  448     0.00000   2.36850  6.64196e-02  1262  2194   0.00   2.86   5.02  -63.74    0.08  112.44  2.000  0.000 0 2 0 2  0.313  0.313  12.72    0.00     0.00    0.00   1   90.00     0    0    0    12   0.0  1   1    4    0   0.000    0.000    0.000  1  0.000000  0.000000  0.000000
 12   2    1  1 0 1    57  16   100  448  448     0.00000   2.36850  6.64196e-02  1283  2230   0.00   2.86   5.02  -63.84    0.08  110.45  2.000  0.000 0 2 0 2  0.313  0.313  12.72    0.00     0.00    0.00   1   90.00     0    0    0    12   0.0  1   1    4    0   0.000    0.000    0.000  1  0.000000  0.000000  0.000000
 13   2    1  1 0 1    58  16   100  448  448     0.00000   2.36850  6.64196e-02  1292  2245   0.00   2.86   5.02  -63.94    0.07  108.45  2.000  0.000 0 2 0 2  0.313  0.313  12.72    0.00     0.00    0.00   1   90.00     0    0    0    12   0.0  1   1    4    0   0.000    0.000    0.000  1  0.000000  0.000000  0.000000
 14   2    1  1 0 1    59  16   100  448  448     0.00000   2.36850  6.64196e-02  1303  2265   0.00   2.86   5.02  -64.04    0.06  106.45  2.000  0.000 0 2 0 2  0.313  0.313  12.72    0.00     0.00    0.00   1   90.00     0    0    0    12   0.0  1   1    4    0   0.000    0.000    0.000  1  0.000000  0.000000  0.000000
 15   2    1  1 0 1    60  16   100  448  448     0.00000   2.36850  6.64196e-02  1319  2293   0.00   2.86   5.02  -64.13    0.05  104.45  2.000  0.000 0 2 0 2  0.313  0.313  12.72    0.00     0.00    0.00   1   90.00     0    0    0    12   0.0  1   1    4    0   0.000    0.000    0.000  1  0.000000  0.000000  0.000000
 16   2    1  1 0 1    61  16   100  448  448     0.00000   2.36850  6.64196e-02  1331  2313   0.00   2.86   5.02  -64.23    0.04  102.46  2.000  0.000 0 2 0 2  0.313  0.313  12.72    0.00     0.00    0.00   1   90.00     0    0    0    12   0.0  1   1    4    0   0.000    0.000    0.000  1  0.000000  0.000000  0.000000
 17   2    1  1 0 1    62  16   100  448  448     0.00000   2.36850  6.64196e-02  1332  2316   0.00   2.86   5.02  -64.33    0.03  100.46  2.000  0.000 0 2 0 2  0.313  0.313  12.72    0.00     0.00    0.00   1   90.00     0    0    0    12   0.0  1   1    4    0   0.000    0.000    0.000  1  0.000000  0.000000  0.000000
 18   2    1  1 0 1    63  16   100  448  448     0.00000   2.36850  6.64196e-02  1344  2337   0.00   2.86   5.02  -64.43    0.02   98.46  2.000  0.000 0 2 0 2  0.313  0.313  12.72    0.00     0.00    0.00   1   90.00     0    0    0    12   0.0  1   1    4    0   0.000    0.000    0.000  1  0.000000  0.000000  0.000000
 19   2    1  1 0 1    64  16   100  448  448     0.00000   2.36850  6.64196e-02  1305  2268   0.00   2.86   5.02  -64.53    0.02   96.46  2.000  0.000 0 2 0 2  0.313  0.313  12.72    0.00     0.00    0.00   1   90.00     0    0    0    12   0.0  1   1    4    0   0.000    0.000    0.000  1  0.000000  0.000000  0.000000
 20   2    1  1 0 1    65  16   100  448  448     0.00000   2.36850  6.64196e-02  1280  2224   0.00   2.86   5.02  -64.63    0.01   94.47  2.000  0.000 0 2 0 2  0.313  0.313  12.72    0.00     0.00    0.00   1   90.00     0    0    0    12   0.0  1   1    4    0   0.000    0.000    0.000  1  0.000000  0.000000  0.000000
 21   2    1  1 0 1    66  16   100  448  448     0.00000   2.36850  6.64196e-02  1265  2198   0.00   2.86   5.02  -64.73   -0.00   92.47  2.000  0.000 0 2 0 2  0.313  0.313  12.72    0.00     0.00    0.00   1   90.00     0    0    0    12   0.0  1   1    4    0   0.000    0.000    0.000  1  0.000000  0.000000  0.000000
 22   2    1  1 0 1    67  16   100  448  448     0.00000   2.36850  6.64196e-02  1217  2115   0.00   2.86   5.02  -64.83   -0.01   90.47  2.000  0.000 0 2 0 2  0.313  0.313  12.72    0.00     0.00    0.00   1   90.00     0    0    0    12   0.0  1   1    4    0   0.000    0.000    0.000  1  0.000000  0.000000  0.000000
 23   2    1  1 0 1    68  16   100  448  448     0.00000   2.36850  6.64196e-02  1224  2128   0.00   2.86   5.02  -64.93   -0.02   88.47  2.000  0.000 0 2 0 2  0.313  0.313  12.72    0.00     0.00    0.00   1   90.00     0    0    0    12   0.0  1   1    4    0   0.000    0.000    0.000  1  0.000000  0.000000  0.000000
 24   2    1  1 0 1    69  16   100  448  448     0.00000   2.36850  6.64196e-02  1210  2103   0.00   2.86   5.02  -65.03   -0.03   86.48  2.000  0.000 0 2 0 2  0.313  0.313  12.72    0.00     0.00    0.00   1   90.00     0    0    0    12   0.0  1   1    4    0   0.000    0.000    0.000  1  0.000000  0.000000  0.000000
 25   2    1  1 0 1    70  16   100  448  448     0.00000   2.36850  6.64196e-02  1208  2099   0.00   2.86   5.02  -65.13   -0.04   84.48  2.000  0.000 0 2 0 2  0.313  0.313  12.72    0.00     0.00    0.00   1   90.00     0    0    0    12   0.0  1   1    4    0   0.000    0.000    0.000  1  0.000000  0.000000  0.000000
 26   2    1  1 0 1    71  16   100  448  448     0.00000   2.36850  6.64196e-02  1191  2071   0.00   2.86   5.02  -65.23   -0.05   82.48  2.000  0.000 0 2 0 2  0.313  0.313  12.72    0.00     0.00    0.00   1   90.00     0    0    0    12   0.0  1   1    4    0   0.000    0.000    0.000  1  0.000000  0.000000  0.000000
 27   2    1  1 0 1    72  16   100  448  448     0.00000   2.36850  6.64196e-02  1191  2071   0.00   2.86   5.02  -65.33   -0.05   80.48  2.000  0.000 0 2 0 2  0.313  0.313  12.72    0.00     0.00    0.00   1   90.00     0    0    0    12   0.0  1   1    4    0   0.000    0.000    0.000  1  0.000000  0.000000  0.000000
 28   2    1  1 0 1    73  16   100  448  448     0.00000   2.36850  6.64196e-02  1181  2053   0.00   2.86   5.02  -65.43   -0.06   78.49  2.000  0.000 0 2 0 2  0.313  0.313  12.72    0.00     0.00    0.00   1   90.00     0    0    0    12   0.0  1   1    4    0   0.000    0.000    0.000  1  0.000000  0.000000  0.000000
 29   2    1  1 0 1    74  16   100  448  448     0.00000   2.36850  6.64196e-02  1177  2046   0.00   2.86   5.02  -65.53   -0.07   76.49  2.000  0.000 0 2 0 2  0.313  0.313  12.72    0.00     0.00    0.00   1   90.00     0    0    0    12   0.0  1   1    4    0   0.000    0.000    0.000  1  0.000000  0.000000  0.000000
