# === DATA DESCRIPTION FILE ======================================================
#
# CAUTION - Investigational device.
# Limited by Federal Law to investigational use.
#
# Dataset name: John_Doe_WIP_3D_WATSf_ISO
#
# CLINICAL TRYOUT             Research image export tool     V4.2
#
# === GENERAL INFORMATION ========================================================
#
.    Patient name                       :   John_Doe
.    Examination name                   :   LEFT KNEE
.    Protocol name                      :   WIP 3D_WATSf ISO
.    Examination date/time              :   2020.04.11 / 09:14:45
.    Series Type                        :   Image   MRSERIES
.    Acquisition nr                     :   1
.    Reconstruction nr                  :   1
.    Scan Duration [sec]                :   229
.    Max. number of cardiac phases      :   1
.    Max. number of echoes              :   1
.    Max. number of slices/locations    :   300
.    Max. number of dynamics            :   1
.    Max. number of mixes               :   1
.    Patient position                   :   Feet First Supine
.    Preparation direction              :   Anterior-Posterior
.    Technique                          :   FFE
.    Scan resolution  (x, y)            :   200  200
.    Scan mode                          :   3D
.    Repetition time [ms]               :   20.000  
.    FOV (ap,fh,rl) [mm]                :   140.000  140.000  105.000
.    Water Fat shift [pixels]           :   1.001
.    Angulation midslice(ap,fh,rl)[degr]:   0.000  2.858  5.023
.    Off Centre midslice(ap,fh,rl) [mm] :   -64.979  -0.024  87.475
.    Flow compensation <0=no 1=yes> ?   :   0
.    Presaturation     <0=no 1=yes> ?   :   0
.    Phase encoding velocity [cm/sec]   :   0.000000  0.000000  0.000000
.    MTC               <0=no 1=yes> ?   :   0
.    SPIR              <0=no 1=yes> ?   :   0
.    EPI factor        <0,1=no EPI>     :   1
.    Dynamic scan      <0=no 1=yes> ?   :   0
.    Diffusion         <0=no 1=yes> ?   :   0
.    Diffusion echo time [ms]           :   0.0000
.    Max. number of diffusion values    :   1
.    Max. number of gradient orients    :   1
.    Number of label types   <0=no ASL> :   0
#
# === PIXEL VALUES =============================================================
#  PV = pixel value in REC file, FP = floating point value, DV = displayed value on console
#  RS = rescale slope,           RI = rescale intercept,    SS = scale slope
#  DV = PV * RS + RI             FP = DV / (RS * SS)
#
# === IMAGE INFORMATION DEFINITION =============================================
#  The rest of this file contains ONE line per image, this line contains the following information:
#
#  slice number                             (integer)
#  echo number                              (integer)
#  dynamic scan number                      (integer)
#  cardiac phase number                     (integer)
#  image_type_mr                            (integer)
#  scanning sequence                        (integer)
#  index in REC file (in images)            (integer)
#  image pixel size (in bits)               (integer)
#  scan percentage                          (integer)
#  recon resolution (x y)                   (2*integer)
#  rescale intercept                        (float)
#  rescale slope                            (float)
#  scale slope                              (float)
#  window center                            (integer)
#  window width                             (integer)
#  image angulation (ap,fh,rl in degrees )  (3*float)
#  image offcentre (ap,fh,rl in mm )        (3*float)
#  slice thickness (in mm )                 (float)
#  slice gap (in mm )                       (float)
#  image_display_orientation                (integer)
#  slice orientation ( TRA/SAG/COR )        (integer)
#  fmri_status_indication                   (integer)
#  image_type_ed_es  (end diast/end syst)   (integer)
#  pixel spacing (x,y) (in mm)              (2*float)
#  echo_time                                (float)
#  dyn_scan_begin_time                      (float)
#  trigger_time                             (float)
#  diffusion_b_factor                       (float)
#  number of averages                       (integer)
#  image_flip_angle (in degrees)            (float)
#  cardiac frequency   (bpm)                (integer)
#  minimum RR-interval (in ms)              (integer)
#  maximum RR-interval (in ms)              (integer)
#  TURBO factor  <0=no turbo>               (integer)
#  Inversion delay (in ms)                  (float)
#  diffusion b value number    (imagekey!)  (integer)
#  gradient orientation number (imagekey!)  (integer)
#  contrast type                            (string)
#  diffusion anisotropy type                (string)
#  diffusion (ap, fh, rl)                   (3*float)
#  label type (ASL)            (imagekey!)  (integer)
#  Contrast Bolus Agent                     (string)
#  Contrast Bolus Route                     (float)
#  Contrast Bolus Volume                    (string)
#  Contrast Bolus Start Time                (string)
#  Contrast Bolus Total Dose                (float)
#  Contrast Bolus Ingredient                (string)
#  Contrast Bolus Ingredient Concentration  (float)
#
# === IMAGE INFORMATION ==========================================================
#  sl ec  dyn ph ty    idx pix scan% rec size                (re)scale              window        angulation              offcentre        thick   gap   info      spacing     echo     dtime   ttime    diff  avg  flip    freq   RR-int  turbo delay b grad cont anis         diffusion       L.ty  contagent   controute  contvolume  conttime  contdose  contingr  contingrconcen

  1   1    1  1 0 2     0  16    78  400  400     0.00000   3.96703  4.49676e-03   580  1009   0.00   2.86   5.02  -62.38    0.20  139.73  0.700 -0.350 0 2 0 2  0.350  0.350   9.20    0.00     0.00    0.00   1   25.00     0    0    0     1   0.0  1   1    7    0   0.000    0.000    0.000  1  0.000000  0.000000  0.000000
  2   1    1  1 0 2     1  16    78  400  400     0.00000   3.96703  4.49676e-03   570   990   0.00   2.86   5.02  -62.40    0.20  139.39  0.700 -0.350 0 2 0 2  0.350  0.350   9.20    0.00     0.00    0.00   1   25.00     0    0    0     1   0.0  1   1    7    0   0.000    0.000    0.000  1  0.000000  0.000000  0.000000
  3   1    1  1 0 2     2  16    78  400  400     0.00000   3.96703  4.49676e-03   562   978   0.00   2.86   5.02  -62.41    0.20  139.04  0.700 -0.350 0 2 0 2  0.350  0.350   9.20    0.00     0.00    0.00   1   25.00     0    0    0     1   0.0  1   1    7    0   0.000    0.000    0.000  1  0.000000  0.000000  0.000000
  4   1    1  1 0 2     3  16    78  400  400     0.00000   3.96703  4.49676e-03   568   988   0.00   2.86   5.02  -62.43    0.20  138.69  0.700 -0.350 0 2 0 2  0.350  0.350   9.20    0.00     0.00    0.00   1   25.00     0    0    0     1   0.0  1   1    7    0   0.000    0.000    0.000  1  0.000000  0.000000  0.000000
  5   1    1  1 0 2     4  16    78  400  400     0.00000   3.96703  4.49676e-03   545   948   0.00   2.86   5.02  -62.45    0.20  138.34  0.700 -0.350 0 2 0 2  0.350  0.350   9.20    0.00     0.00    0.00   1   25.00     0    0    0     1   0.0  1   1    7    0   0.000    0.000    0.000  1  0.000000  0.000000  0.000000
  6   1    1  1 0 2     5  16    78  400  400     0.00000   3.96703  4.49676e-03   528   918   0.00   2.86   5.02  -62.47    0.20  137.99  0.700 -0.350 0 2 0 2  0.350  0.350   9.20    0.00     0.00    0.00   1   25.00     0    0    0     1   0.0  1   1    7    0   0.000    0.000    0.000  1  0.000000  0.000000  0.000000
  7   1    1  1 0 2     6  16    78  400  400     0.00000   3.96703  4.49676e-03   528   918   0.00   2.86   5.02  -62.48    0.20  137.64  0.700 -0.350 0 2 0 2  0.350  0.350   9.20    0.00     0.00    0.00   1   25.00     0    0    0     1   0.0  1   1    7    0   0.000    0.000    0.000  1  0.000000  0.000000  0.000000
  8   1    1  1 0 2     7  16    78  400  400     0.00000   3.96703  4.49676e-03   537   934   0.00   2.86   5.02  -62.50    0.19  137.29  0.700 -0.350 0 2 0 2  0.350  0.350   9.20    0.00     0.00    0.00   1   25.00     0    0    0     1   0.0  1   1    7    0   0.000    0.000    0.000  1  0.000000  0.000000  0.000000
  9   1    1  1 0 2     8  16    78  400  400     0.00000   3.96703  4.49676e-03   585  1016   0.00   2.86   5.02  -62.52    0.19  136.94  0.700 -0.350 0 2 0 2  0.350  0.350   9.20    0.00     0.00    0.00   1   25.00     0    0    0     1   0.0  1   1    7    0   0.000    0.000    0.000  1  0.000000  0.000000  0.000000
 10   1    1  1 0 2     9  16    78  400  400     0.00000   3.96703  4.49676e-03   560   973   0.00   2.86   5.02  -62.54    0.19  136.59  0.700 -0.350 0 2 0 2  0.350  0.350   9.20    0.00     0.00    0.00   1   25.00     0    0    0     1   0.0  1   1    7    0   0.000    0.000    0.000  1  0.000000  0.000000  0.000000
 11   1    1  1 0 2    10  16    78  400  400     0.00000   3.96703  4.49676e-03   526   914   0.00   2.86   5.02  -62.55    0.19  136.24  0.700 -0.350 0 2 0 2  0.350  0.350   9.20    0.00     0.00    0.00   1   25.00     0    0    0     1   0.0  1   1    7    0   0.000    0.000    0.000  1  0.000000  0.000000  0.000000
 12   1    1  1 0 2    11  16    78  400  400     0.00000   3.96703  4.49676e-03   508   882   0.00   2.86   5.02  -62.57    0.19  135.89  0.700 -0.350 0 2 0 2  0.350  0.350   9.20    0.00     0.00    0.00   1   25.00     0    0    0     1   0.0  1   1    7    0   0.000    0.000    0.000  1  0.000000  0.000000  0.000000
 13   1    1  1 0 2    12  16    78  400  400     0.00000   3.96703  4.49676e-03   496   862   0.00   2.86   5.02  -62.59    0.19  135.54  0.700 -0.350 0 2 0 2  0.350  0.350   9.20    0.00     0.00    0.00   1   25.00     0    0    0     1   0.0  1   1    7    0   0.000    0.000    0.000  1  0.000000  0.000000  0.000000
 14   1    1  1 0 2    13  16    78  400  400     0.00000   3.96703  4.49676e-03   482   839   0.00   2.86   5.02  -62.61    0.18  135.19  0.700 -0.350 0 2 0 2  0.350  0.350   9.20    0.00     0.00    0.00   1   25.00     0    0    0     1   0.0  1   1    7    0   0.000    0.000    0.000  1  0.000000  0.000000  0.000000
 15   1    1  1 0 2    14  16    78  400  400     0.00000   3.96703  4.49676e-03   486   846   0.00   2.86   5.02  -62.62    0.18  134.84  0.700 -0.350 0 2 0 2  0.350  0.350   9.20    0.00     0.00    0.00   1   25.00     0    0    0     1   0.0  1   1    7    0   0.000    0.000    0.000  1  0.000000  0.000000  0.000000
 16   1    1  1 0 2    15  16    78  400  400     0.00000   3.96703  4.49676e-03   487   846   0.00   2.86   5.02  -62.64    0.18  134.49  0.700 -0.350 0 2 0 2  0.350  0.350   9.20    0.00     0.00    0.00   1   25.00     0    0    0     1   0.0  1   1    7    0   0.000    0.000    0.000  1  0.000000  0.000000  0.000000
 17   1    1  1 0 2    16  16    78  400  400     0.00000   3.96703  4.49676e-03   484   841   0.00   2.86   5.02  -62.66    0.18  134.14  0.700 -0.350 0 2 0 2  0.350  0.350   9.20    0.00     0.00    0.00   1   25.00     0    0    0     1   0.0  1   1    7    0   0.000    0.000    0.000  1  0.000000  0.000000  0.000000
 18   1    1  1 0 2    17  16    78  400  400     0.00000   3.96703  4.49676e-03   489   850   0.00   2.86   5.02  -62.68    0.18  133.79  0.700 -0.350 0 2 0 2  0.350  0.350   9.20    0.00     0.00    0.00   1   25.00     0    0    0     1   0.0  1   1    7    0   0.000    0.000    0.000  1  0.000000  0.000000  0.000000
 19   1    1  1 0 2    18  16    78  400  400     0.00000   3.96703  4.49676e-03   482   839   0.00   2.86   5.02  -62.69    0.18  133.44  0.700 -0.350 0 2 0 2  0.350  0.350   9.20    0.00     0.00    0.00   1   25.00     0    0    0     1   0.0  1   1    7    0   0.000    0.000    0.000  1  0.000000  0.000000  0.000000
 20   1    1  1 0 2    19  16    78  400  400     0.00000   3.96703  4.49676e-03   483   840   0.00   2.86   5.02  -62.71    0.18  133.09  0.700 -0.350 0 2 0 2  0.350  0.350   9.20    0.00     0.00    0.00   1   25.00     0    0    0     1   0.0  1   1    7    0   0.000    0.000    0.000  1  0.000000  0.000000  0.000000
 21   1    1  1 0 2    20  16    78  400  400     0.00000   3.96703  4.49676e-03   480   835   0.00   2.86   5.02  -62.73    0.17  132.74  0.700 -0.350 0 2 0 2  0.350  0.350   9.20    0.00     0.00    0.00   1   25.00     0    0    0     1   0.0  1   1    7    0   0.000    0.000    0.000  1  0.000000  0.000000  0.000000
 22   1    1  1 0 2    21  16    78  400  400     0.00000   3.96703  4.49676e-03   484   842   0.00   2.86   5.02  -62.74    0.17  132.39  0.700 -0.350 0 2 0 2  0.350  0.350   9.20    0.00     0.00    0.00   1   25.00     0    0    0     1   0.0  1   1    7    0   0.000    0.000    0.000  1  0.000000  0.000000  0.000000
 23   1    1  1 0 2    22  16    78  400  400     0.00000   3.96703  4.49676e-03   480   835   0.00   2.86   5.02  -62.76    0.17  132.04  0.700 -0.350 0 2 0 2  0.350  0.350   9.20    0.00     0.00    0.00   1   25.00     0    0    0     1   0.0  1   1    7    0   0.000    0.000    0.000  1  0.000000  0.000000  0.000000
 24   1    1  1 0 2    23  16    78  400  400     0.00000   3.96703  4.49676e-03   481   836   0.00   2.86   5.02  -62.78    0.17  131.69  0.700 -0.350 0 2 0 2  0.350  0.350   9.20    0.00     0.00    0.00   1   25.00     0    0    0     1   0.0  1   1    7    0   0.000    0.000    0.000  1  0.000000  0.000000  0.000000
 25   1    1  1 0 2    24  16    78  400  400     0.00000   3.96703  4.49676e-03   483   839   0.00   2.86   5.02  -62.80    0.17  131.35  0.700 -0.350 0 2 0 2  0.350  0.350   9.20    0.00     0.00    0.00   1   25.00     0    0    0     1   0.0  1   1    7    0   0.000    0.000    0.000  1  0.000000  0.000000  0.000000
 26   1    1  1 0 2    25  16    78  400  400     0.00000   3.96703  4.49676e-03   485   843   0.00   2.86   5.02  -62.81    0.17  131.00  0.700 -0.350 0 2 0 2  0.350  0.350   9.20    0.00     0.00    0.00   1   25.00     0    0    0     1   0.0  1   1    7    0   0.000    0.000    0.000  1  0.000000  0.000000  0.000000
 27   1    1  1 0 2    26  16    78  400  400     0.00000   3.96703  4.49676e-03   490   851   0.00   2.86   5.02  -62.83    0.16  130.65  0.700 -0.350 0 2 0 2  0.350  0.350   9.20    0.00     0.00    0.00   1   25.00     0    0    0     1   0.0  1   1    7    0   0.000    0.000    0.000  1  0.000000  0.000000  0.000000
 28   1    1  1 0 2    27  16    78  400  400     0.00000   3.96703  4.49676e-03   490   852   0.00   2.86   5.02  -62.85    0.16  130.30  0.700 -0.350 0 2 0 2  0.350  0.350   9.20    0.00     0.00    0.00   1   25.00     0    0    0     1   0.0  1   1    7    0   0.000    0.000    0.000  1  0.000000  0.000000  0.000000
 29   1    1  1 0 2    28  16    78  400  400     0.00000   3.96703  4.49676e-03   489   850   0.00   2.86   5.02  -62.87    0.16  129.95  0.700 -0.350 0 2 0 2  0.350  0.350   9.20    0.00     0.00    0.00   1   25.00     0    0    0     1   0.0  1   1    7    0   0.000    0.000    0.000  1  0.000000  0.000000  0.000000
 30   1    1  1 0 2    29  16    78  400  400     0.00000   3.96703  4.49676e-03   491   853   0.00   2.86   5.02  -62.88    0.16  129.60  0.700 -0.350 0 2 0 2  0.350  0.350   9.20    0.00     0.00    0.00   1   25.00     0    0    0     1   0.0  1   1    7    0   0.000    0.000    0.000  1  0.000000  0.000000  0.000000
 31   1    1  1 0 2    30  16    78  400  400     0.00000   3.96703  4.49676e-03   491   854   0.00   2.86   5.02  -62.90    0.16  129.25  0.700 -0.350 0 2 0 2  0.350  0.350   9.20    0.00     0.00    0.00   1   25.00     0    0    0     1   0.0  1   1    7    0   0.000    0.000    0.000  1  0.000000  0.000000  0.000000
 32   1    1  1 0 2    31  16    78  400  400     0.00000   3.96703  4.49676e-03   491   854   0.00   2.86   5.02  -62.92    0.16  128.90  0.700 -0.350 0 2 0 2  0.350  0.350   9.20    0.00     0.00    0.00   1   25.00     0    0    0     1   0.0  1   1    7    0   0.000    0.000    0.000  1  0.000000  0.000000  0.000000
 33   1    1  1 0 2    32  16    78  400  400     0.00000   3.96703  4.49676e-03   485   843   0.00   2.86   5.02  -62.94    0.16  128.55  0.700 -0.350 0 2 0 2  0.350  0.350   9.20    0.00     0.00    0.00   1   25.00     0    0    0     1   0.0  1   1    7    0   0.000    0.000    0.000  1  0.000000  0.000000  0.000000
 34   1    1  1 0 2    33  16    78  400  400     0.00000   3.96703  4.49676e-03   485   844   0.00   2.86   5.02  -62.95    0.15  128.20  0.700 -0.350 0 2 0 2  0.350  0.350   9.20    0.00     0.00    0.00   1   25.00     0    0    0     1   0.0  1   1    7    0   0.000    0.000    0.000  1  0.000000  0.000000  0.000000
 35   1    1  1 0 2    34  16    78  400  400     0.00000   3.96703  4.49676e-03   485   843   0.00   2.86   5.02  -62.97    0.15  127.85  0.700 -0.350 0 2 0 2  0.350  0.350   9.20    0.00     0.00    0.00   1   25.00     0    0    0     1   0.0  1   1    7    0   0.000    0.000    0.000  1  0.000000  0.000000  0.000000
 36   1    1  1 0 2    35  16    78  400  400     0.00000   3.96703  4.49676e-03   490   851   0.00   2.86   5.02  -62.99    0.15  127.50  0.700 -0.350 0 2 0 2  0.350  0.350   9.20    0.00     0.00    0.00   1   25.00     0    0    0     1   0.0  1   1    7    0   0.000    0.000    0.000  1  0.000000  0.000000  0.000000
 37   1    1  1 0 2    36  16    78  400  400     0.00000   3.96703  4.49676e-03   488   848   0.00   2.86   5.02  -63.01    0.15  127.15  0.700 -0.350 0 2 0 2  0.350  0.350   9.20    0.00     0.00    0.00   1   25.00     0    0    0     1   0.0  1   1    7    0   0.000    0.000    0.000  1  0.000000  0.000000  0.000000
 38   1    1  1 0 2    37  16    78  400  400     0.00000   3.96703  4.49676e-03   489   850   0.00   2.86   5.02  -63.02    0.15  126.80  0.700 -0.350 0 2 0 2  0.350  0.350   9.20    0.00     0.00    0.00   1   25.00     0    0    0     1   0.0  1   1    7    0   0.000    0.000    0.000  1  0.000000  0.000000  0.000000
 39   1    1  1 0 2    38  16    78  400  400     0.00000   3.96703  4.49676e-03   492   856   0.00   2.86   5.02  -63.04    0.15  126.45  0.700 -0.350 0 2 0 2  0.350  0.350   9.20    0.00     0.00    0.00   1   25.00     0    0    0     1   0.0  1   1    7    0   0.000    0.000    0.000  1  0.000000  0.000000  0.000000
 40   1    1  1 0 2    39  16    78  400  400     0.00000   3.96703  4.49676e-03   499   867   0.00   2.86   5.02  -63.06    0.14  126.10  0.700 -0.350 0 2 0 2  0.350  0.350   9.20    0.00     0.00    0.00   1   25.00     0    0    0     1   0.0  1   1    7    0   0.000    0.000    0.000  1  0.000000  0.000000  0.000000
 41   1    1  1 0 2    40  16    78  400  400     0.00000   3.96703  4.49676e-03   516   897   0.00   2.86   5.02  -63.07    0.14  125.75  0.700 -0.350 0 2 0 2  0.350  0.350   9.20    0.00     0.00    0.00   1   25.00     0    0    0     1   0.0  1   1    7    0   0.000    0.000    0.000  1  0.000000  0.000000  0.000000
 42   1    1  1 0 2    41  16    78  400  400     0.00000   3.96703  4.49676e-03   542   942   0.00   2.86   5.02  -63.09    0.14  125.40  0.700 -0.350 0 2 0 2  0.350  0.350   9.20    0.00     0.00    0.00   1   25.00     0    0    0     1   0.0  1   1    7    0   0.000    0.000    0.000  1  0.000000  0.000000  0.000000
 43   1    1  1 0 2    42  16    78  400  400     0.00000   3.96703  4.49676e-03   553   961   0.00   2.86   5.02  -63.11    0.14  125.05  0.700 -0.350 0 2 0 2  0.350  0.350   9.20    0.00     0.00    0.00   1   25.00     0    0    0     1   0.0  1   1    7    0   0.000    0.000    0.000  1  0.000000  0.000000  0.000000
 44   1    1  1 0 2    43  16    78  400  400     0.00000   3.96703  4.49676e-03   567   985   0.00   2.86   5.02  -63.13    0.14  124.70  0.700 -0.350 0 2 0 2  0.350  0.350   9.20    0.00     0.00    0.00   1   25.00     0    0    0     1   0.0  1   1    7    0   0.000    0.000    0.000  1  0.000000  0.000000  0.000000
 45   1    1  1 0 2    44  16    78  400  400     0.00000   3.96703  4.49676e-03   576  1002   0.00   2.86   5.02  -63.14    0.14  124.35  0.700 -0.350 0 2 0 2  0.350  0.350   9.20    0.00     0.00    0.00   1   25.00     0    0    0     1   0.0  1   1    7    0   0.000    0.000    0.000  1  0.000000  0.000000  0.000000
 46   1    1  1 0 2    45  16    78  400  400     0.00000   3.96703  4.49676e-03   576  1002   0.00   2.86   5.02  -63.16    0.14  124.00  0.700 -0.350 0 2 0 2  0.350  0.350   9.20    0.00     0.00    0.00   1   25.00     0    0    0     1   0.0  1   1    7    0   0.000    0.000    0.000  1  0.000000  0.000000  0.000000
 47   1    1  1 0 2    46  16    78  400  400     0.00000   3.96703  4.49676e-03   583  1013   0.00   2.86   5.02  -63.18    0.13  123.65  0.700 -0.350 0 2 0 2  0.350  0.350   9.20    0.00     0.00    0.00   1   25.00     0    0    0     1   0.0  1   1    7    0   0.000    0.000    0.000  1  0.000000  0.000000  0.000000
 48   1    1  1 0 2    47  16    78  400  400     0.00000   3.96703  4.49676e-03   582  1012   0.00   2.86   5.02  -63.20    0.13  123.31  0.700 -0.350 0 2 0 2  0.350  0.350   9.20    0.00     0.00    0.00   1   25.00     0    0    0     1   0.0  1   1    7    0   0.000    0.000    0.000  1  0.000000  0.000000  0.000000
 49   1    1  1 0 2    48  16    78  400  400     0.00000   3.96703  4.49676e-03   577  1004   0.00   2.86   5.02  -63.21    0.13  122.96  0.700 -0.350 0 2 0 2  0.350  0.350   9.20    0.00     0.00    0.00   1   25.00     0    0    0     1   0.0  1   1    7    0   0.000    0.000    0.000  1  0.000000  0.000000  0.000000
 50   1    1  1 0 2    49  16    78  400  400     0.00000   3.96703  4.49676e-03   577  1004   0.00   2.86   5.02  -63.23    0.13  122.61  0.700 -0.350 0 2 0 2  0.350  0.350   9.20    0.00     0.00    0.00   1   25.00     0    0    0     1   0.0  1   1    7    0   0.000    0.000    0.000  1  0.000000  0.000000  0.000000
 51   1    1  1 0 2    50  16    78  400  400     0.00000   3.96703  4.49676e-03   594  1033   0.00   2.86   5.02  -63.25    0.13  122.26  0.700 -0.350 0 2 0 2  0.350  0.350   9.20    0.00     0.00    0.00   1   25.00     0    0    0     1   0.0  1   1    7    0   0.000    0.000    0.000  1  0.000000  0.000000  0.000000
 52   1    1  1 0 2    51  16    78  400  400     0.00000   3.96703  4.49676e-03   621  1079   0.00   2.86   5.02  -63.27    0.13  121.91  0.700 -0.350 0 2 0 2  0.350  0.350   9.20    0.00     0.00    0.00   1   25.00     0    0    0     1   0.0  1   1    7    0   0.000    0.000    0.000  1  0.000000  0.000000  0.000000
 53   1    1  1 0 2    52  16    78  400  400     0.00000   3.96703  4.49676e-03   674  1172   0.00   2.86   5.02  -63.28    0.12  121.56  0.700 -0.350 0 2 0 2  0.350  0.350   9.20    0.00     0.00    0.00   1   25.00     0    0    0     1   0.0  1   1    7    0   0.000    0.000    0.000  1  0.000000  0.000000  0.000000
 54   1    1  1 0 2    53  16    78  400  400     0.00000   3.96703  4.49676e-03   756  1315   0.00   2.86   5.02  -63.30    0.12  121.21  0.700 -0.350 0 2 0 2  0.350  0.350   9.20    0.00     0.00    0.00   1   25.00     0    0    0     1   0.0  1   1    7    0   0.000    0.000    0.000  1  0.000000  0.000000  0.000000
 55   1    1  1 0 2    54  16    78  400  400     0.00000   3.96703  4.49676e-03   734  1277   0.00   2.86   5.02  -63.32    0.12  120.86  0.700 -0.350 0 2 0 2  0.350  0.350   9.20    0.00     0.00    0.00   1   25.00     0    0    0     1   0.0  1   1    7    0   0.000    0.000    0.000  1  0.000000  0.000000  0.000000
 56   1    1  1 0 2    55  16    78  400  400     0.00000   3.96703  4.49676e-03   756  1314   0.00   2.86   5.02  -63.34    0.12  120.51  0.700 -0.350 0 2 0 2  0.350  0.350   9.20    0.00     0.00    0.00   1   25.00     0    0    0     1   0.0  1   1    7    0   0.000    0.000    0.000  1  0.000000  0.000000  0.000000
 57   1    1  1 0 2    56  16    78  400  400     0.00000   3.96703  4.49676e-03   735  1277   0.00   2.86   5.02  -63.35    0.12  120.16  0.700 -0.350 0 2 0 2  0.350  0.350   9.20    0.00     0.00    0.00   1   25.00     0    0    0     1   0.0  1   1    7    0   0.000    0.000    0.000  1  0.000000  0.000000  0.000000
 58   1    1  1 0 2    57  16    78  400  400     0.00000   3.96703  4.49676e-03   736  1279   0.00   2.86   5.02  -63.37    0.12  119.81  0.700 -0.350 0 2 0 2  0.350  0.350   9.20    0.00     0.00    0.00   1   25.00     0    0    0     1   0.0  1   1    7    0   0.000    0.000    0.000  1  0.000000  0.000000  0.000000
 59   1    1  1 0 2    58  16    78  400  400     0.00000   3.96703  4.49676e-03   768  1335   0.00   2.86   5.02  -63.39    0.12  119.46  0.700 -0.350 0 2 0 2  0.350  0.350   9.20    0.00     0.00    0.00   1   25.00     0    0    0     1   0.0  1   1    7    0   0.000    0.000    0.000  1  0.000000  0.000000  0.000000
 60   1    1  1 0 2    59  16    78  400  400     0.00000   3.96703  4.49676e-03   798  1386   0.00   2.86   5.02  -63.41    0.11  119.11  0.700 -0.350 0 2 0 2  0.350  0.350   9.20    0.00     0.00    0.00   1   25.00     0    0    0     1   0.0  1   1    7    0   0.000    0.000    0.000  1  0.000000  0.000000  0.000000
 61   1    1  1 0 2    60  16    78  400  400     0.00000   3.96703  4.49676e-03   876  1523   0.00   2.86   5.02  -63.42    0.11  118.76  0.700 -0.350 0 2 0 2  0.350  0.350   9.20    0.00     0.00    0.00   1   25.00     0    0    0     1   0.0  1   1    7    0   0.000    0.000    0.000  1  0.000000  0.000000  0.000000
 62   1    1  1 0 2    61  16    78  400  400     0.00000   3.96703  4.49676e-03   946  1645   0.00   2.86   5.02  -63.44    0.11  118.41  0.700 -0.350 0 2 0 2  0.350  0.350   9.20    0.00     0.00    0.00   1   25.00     0    0    0     1   0.0  1   1    7    0   0.000    0.000    0.000  1  0.000000  0.000000  0.000000
 63   1    1  1 0 2    62  16    78  400  400     0.00000   3.96703  4.49676e-03   952  1655   0.00   2.86   5.02  -63.46    0.11  118.06  0.700 -0.350 0 2 0 2  0.350  0.350   9.20    0.00     0.00    0.00   1   25.00     0    0    0     1   0.0  1   1    7    0   0.000    0.000    0.000  1  0.000000  0.000000  0.000000
 64   1    1  1 0 2    63  16    78  400  400     0.00000   3.96703  4.49676e-03   892  1551   0.00   2.86   5.02  -63.47    0.11  117.71  0.700 -0.350 0 2 0 2  0.350  0.350   9.20    0.00     0.00    0.00   1   25.00     0    0    0     1   0.0  1   1    7    0   0.000    0.000    0.000  1  0.000000  0.000000  0.000000
 65   1    1  1 0 2    64  16    78  400  400     0.00000   3.96703  4.49676e-03   883  1535   0.00   2.86   5.02  -63.49    0.11  117.36  0.700 -0.350 0 2 0 2  0.350  0.350   9.20    0.00     0.00    0.00   1   25.00     0    0    0     1   0.0  1   1    7    0   0.000    0.000    0.000  1  0.000000  0.000000  0.000000
 66   1    1  1 0 2    65  16    78  400  400     0.00000   3.96703  4.49676e-03   884  1537   0.00   2.86   5.02  -63.51    0.10  117.01  0.700 -0.350 0 2 0 2  0.350  0.350   9.20    0.00     0.00    0.00   1   25.00     0    0    0     1   0.0  1   1    7    0   0.000    0.000    0.000  1  0.000000  0.000000  0.000000
 67   1    1  1 0 2    66  16    78  400  400     0.00000   3.96703  4.49676e-03   889  1545   0.00   2.86   5.02  -63.53    0.10  116.66  0.700 -0.350 0 2 0 2  0.350  0.350   9.20    0.00     0.00    0.00   1   25.00     0    0    0     1   0.0  1   1    7    0   0.000    0.000    0.000  1  0.000000  0.000000  0.000000
 68   1    1  1 0 2    67  16    78  400  400     0.00000   3.96703  4.49676e-03   909  1580   0.00   2.86   5.02  -63.54    0.10  116.31  0.700 -0.350 0 2 0 2  0.350  0.350   9.20    0.00     0.00    0.00   1   25.00     0    0    0     1   0.0  1   1    7    0   0.000    0.000    0.000  1  0.000000  0.000000  0.000000
 69   1    1  1 0 2    68  16    78  400  400     0.00000   3.96703  4.49676e-03   945  1643   0.00   2.86   5.02  -63.56    0.10  115.96  0.700 -0.350 0 2 0 2  0.350  0.350   9.20    0.00     0.00    0.00   1   25.00     0    0    0     1   0.0  1   1    7    0   0.000    0.000    0.000  1  0.000000  0.000000  0.000000
 70   1    1  1 0 2    69  16    78  400  400     0.00000   3.96703  4.49676e-03  1005  1747   0.00   2.86   5.02  -63.58    0.10  115.61  0.700 -0.350 0 2 0 2  0.350  0.350   9.20    0.00     0.00    0.00   1   25.00     0    0    0     1   0.0  1   1    7    0   0.000    0.000    0.000  1  0.000000  0.000000  0.000000
 71   1    1  1 0 2    70  16    78  400  400     0.00000   3.96703  4.49676e-03  1072  1863   0.00   2.86   5.02  -63.60    0.10  115.27  0.700 -0.350 0 2 0 2  0.350  0.350   9.20    0.00     0.00    0.00   1   25.00     0    0    0     1   0.0  1   1    7    0   0.000    0.000    0.000  1  0.000000  0.000000  0.000000
 72   1    1  1 0 2    71  16    78  400  400     0.00000   3.96703  4.49676e-03  1075  1868   0.00   2.86   5.02  -63.61    0.10  114.92  0.700 -0.350 0 2 0 2  0.350  0.350   9.20    0.00     0.00    0.00   1   25.00     0    0    0     1   0.0  1   1    7    0   0.000    0.000    0.000  1  0.000000  0.000000  0.000000
 73   1    1  1 0 2    72  16    78  400  400     0.00000   3.96703  4.49676e-03  1078  1873   0.00   2.86   5.02  -63.63    0.09  114.57  0.700 -0.350 0 2 0 2  0.350  0.350   9.20    0.00     0.00    0.00   1   25.00     0    0    0     1   0.0  1   1    7    0   0.000    0.000    0.000  1  0.000000  0.000000  0.000000
 74   1    1  1 0 2    73  16    78  400  400     0.00000   3.96703  4.49676e-03  1065  1852   0.00   2.86   5.02  -63.65    0.09  114.22  0.700 -0.350 0 2 0 2  0.350  0.350   9.20    0.00     0.00    0.00   1   25.00     0    0    0     1   0.0  1   1    7    0   0.000    0.000    0.000  1  0.000000  0.000000  0.000000
 75   1    1  1 0 2    74  16    78  400  400     0.00000   3.96703  4.49676e-03  1071  1861   0.00   2.86   5.02  -63.67    0.09  113.87  0.700 -0.350 0 2 0 2  0.350  0.350   9.20    0.00     0.00    0.00   1   25.00     0    0    0     1   0.0  1   1    7    0   0.000    0.000    0.000  1  0.000000  0.000000  0.000000
