# === DATA DESCRIPTION FILE ======================================================
#
# CAUTION - Investigational device.
# Limited by Federal Law to investigational use.
#
# Dataset name: John_Doe_WIP_3D_WATSf_ISO
#
# CLINICAL TRYOUT             Research image export tool     V4.2
#
# === GENERAL INFORMATION ========================================================
#
.    Patient name                       :   John_Doe
.    Examination name                   :   LEFT KNEE
.    Protocol name                      :   WIP T1rho_5Echoes_40ms
.    Examination date/time              :   2020.04.11 / 09:44:45
.    Series Type                        :   Image   MRSERIES
.    Acquisition nr                     :   3
.    Reconstruction nr                  :   1
.    Scan Duration [sec]                :   397
.    Max. number of cardiac phases      :   1
.    Max. number of echoes              :   5
.    Max. number of slices/locations    :   66
.    Max. number of dynamics            :   1
.    Max. number of mixes               :   1
.    Patient position                   :   Feet First Supine
.    Preparation direction              :   Anterior-Posterior
.    Technique                          :   T1TFE
.    Scan resolution  (x, y)            :   256  193
.    Scan mode                          :   3D
.    Repetition time [ms]               :   6.876  
.    FOV (ap,fh,rl) [mm]                :   154.000  154.000  99.000
.    Water Fat shift [pixels]           :   1.504
.    Angulation midslice(ap,fh,rl)[degr]:   0.000  2.858  5.023
.    Off Centre midslice(ap,fh,rl) [mm] :   -64.979  -0.024  87.475
.    Flow compensation <0=no 1=yes> ?   :   0
.    Presaturation     <0=no 1=yes> ?   :   0
.    Phase encoding velocity [cm/sec]   :   0.000000  0.000000  0.000000
.    MTC               <0=no 1=yes> ?   :   0
.    SPIR              <0=no 1=yes> ?   :   0
.    EPI factor        <0,1=no EPI>     :   1
.    Dynamic scan      <0=no 1=yes> ?   :   0
.    Diffusion         <0=no 1=yes> ?   :   0
.    Diffusion echo time [ms]           :   0.0000
.    Max. number of diffusion values    :   1
.    Max. number of gradient orients    :   1
.    Number of label types   <0=no ASL> :   0
#
# === PIXEL VALUES =============================================================
#  PV = pixel value in REC file, FP = floating point value, DV = displayed value on console
#  RS = rescale slope,           RI = rescale intercept,    SS = scale slope
#  DV = PV * RS + RI             FP = DV / (RS * SS)
#
# === IMAGE INFORMATION DEFINITION =============================================
#  The rest of this file contains ONE line per image, this line contains the following information:
#
#  slice number                             (integer)
#  echo number                              (integer)
#  dynamic scan number                      (integer)
#  cardiac phase number                     (integer)
#  image_type_mr                            (integer)
#  scanning sequence                        (integer)
#  index in REC file (in images)            (integer)
#  image pixel size (in bits)               (integer)
#  scan percentage                          (integer)
#  recon resolution (x y)                   (2*integer)
#  rescale intercept                        (float)
#  rescale slope                            (float)
#  scale slope                              (float)
#  window center                            (integer)
#  window width                             (integer)
#  image angulation (ap,fh,rl in degrees )  (3*float)
#  image offcentre (ap,fh,rl in mm )        (3*float)
#  slice thickness (in mm )                 (float)
#  slice gap (in mm )                       (float)
#  image_display_orientation                (integer)
#  slice orientation ( TRA/SAG/COR )        (integer)
#  fmri_status_indication                   (integer)
#  image_type_ed_es  (end diast/end syst)   (integer)
#  pixel spacing (x,y) (in mm)              (2*float)
#  echo_time                                (float)
#  dyn_scan_begin_time                      (float)
#  trigger_time                             (float)
#  diffusion_b_factor                       (float)
#  number of averages                       (integer)
#  image_flip_angle (in degrees)            (float)
#  cardiac frequency   (bpm)                (integer)
#  minimum RR-interval (in ms)              (integer)
#  maximum RR-interval (in ms)              (integer)
#  TURBO factor  <0=no turbo>               (integer)
#  Inversion delay (in ms)                  (float)
#  diffusion b value number    (imagekey!)  (integer)
#  gradient orientation number (imagekey!)  (integer)
#  contrast type                            (string)
#  diffusion anisotropy type                (string)
#  diffusion (ap, fh, rl)                   (3*float)
#  label type (ASL)            (imagekey!)  (integer)
#  Contrast Bolus Agent                     (string)
#  Contrast Bolus Route                     (float)
#  Contrast Bolus Volume                    (string)
#  Contrast Bolus Start Time                (string)
#  Contrast Bolus Total Dose                (float)
#  Contrast Bolus Ingredient                (string)
#  Contrast Bolus Ingredient Concentration  (float)
#
# === IMAGE INFORMATION ==========================================================
#  sl ec  dyn ph ty    idx pix scan% rec size                (re)scale              window        angulation              offcentre        thick   gap   info      spacing     echo     dtime   ttime    diff  avg  flip    freq   RR-int  turbo delay b grad cont anis         diffusion       L.ty  contagent   controute  contvolume  conttime  contdose  contingr  contingrconcen

  1   1    1  1 0 2     0  16    59  320  320     0.00000   6.18657  1.85214e-03   518   901   0.00   2.86   5.02  -62.56    0.19  136.16  3.000 -1.500 0 2 0 2  0.481  0.481   2.68    0.00     0.00    0.00   1    8.00     0    0    0   110 1700.0  1   1    7    0   0.000    0.000    0.000  1  0.000000  0.000000  0.000000
  2   1    1  1 0 2     1  16    59  320  320     0.00000   6.18657  1.85214e-03   601  1045   0.00   2.86   5.02  -62.63    0.18  134.67  3.000 -1.500 0 2 0 2  0.481  0.481   2.68    0.00     0.00    0.00   1    8.00     0    0    0   110 1700.0  1   1    7    0   0.000    0.000    0.000  1  0.000000  0.000000  0.000000
  3   1    1  1 0 2     2  16    59  320  320     0.00000   6.18657  1.85214e-03   650  1129   0.00   2.86   5.02  -62.71    0.18  133.17  3.000 -1.500 0 2 0 2  0.481  0.481   2.68    0.00     0.00    0.00   1    8.00     0    0    0   110 1700.0  1   1    7    0   0.000    0.000    0.000  1  0.000000  0.000000  0.000000
  4   1    1  1 0 2     3  16    59  320  320     0.00000   6.18657  1.85214e-03   673  1170   0.00   2.86   5.02  -62.78    0.17  131.67  3.000 -1.500 0 2 0 2  0.481  0.481   2.68    0.00     0.00    0.00   1    8.00     0    0    0   110 1700.0  1   1    7    0   0.000    0.000    0.000  1  0.000000  0.000000  0.000000
  5   1    1  1 0 2     4  16    59  320  320     0.00000   6.18657  1.85214e-03   702  1219   0.00   2.86   5.02  -62.86    0.16  130.17  3.000 -1.500 0 2 0 2  0.481  0.481   2.68    0.00     0.00    0.00   1    8.00     0    0    0   110 1700.0  1   1    7    0   0.000    0.000    0.000  1  0.000000  0.000000  0.000000
  6   1    1  1 0 2     5  16    59  320  320     0.00000   6.18657  1.85214e-03   736  1279   0.00   2.86   5.02  -62.93    0.16  128.67  3.000 -1.500 0 2 0 2  0.481  0.481   2.68    0.00     0.00    0.00   1    8.00     0    0    0   110 1700.0  1   1    7    0   0.000    0.000    0.000  1  0.000000  0.000000  0.000000
  7   1    1  1 0 2     6  16    59  320  320     0.00000   6.18657  1.85214e-03   757  1315   0.00   2.86   5.02  -63.00    0.15  127.18  3.000 -1.500 0 2 0 2  0.481  0.481   2.68    0.00     0.00    0.00   1    8.00     0    0    0   110 1700.0  1   1    7    0   0.000    0.000    0.000  1  0.000000  0.000000  0.000000
  8   1    1  1 0 2     7  16    59  320  320     0.00000   6.18657  1.85214e-03   761  1323   0.00   2.86   5.02  -63.08    0.14  125.68  3.000 -1.500 0 2 0 2  0.481  0.481   2.68    0.00     0.00    0.00   1    8.00     0    0    0   110 1700.0  1   1    7    0   0.000    0.000    0.000  1  0.000000  0.000000  0.000000
  9   1    1  1 0 2     8  16    59  320  320     0.00000   6.18657  1.85214e-03   918  1596   0.00   2.86   5.02  -63.15    0.14  124.18  3.000 -1.500 0 2 0 2  0.481  0.481   2.68    0.00     0.00    0.00   1    8.00     0    0    0   110 1700.0  1   1    7    0   0.000    0.000    0.000  1  0.000000  0.000000  0.000000
 10   1    1  1 0 2     9  16    59  320  320     0.00000   6.18657  1.85214e-03   979  1702   0.00   2.86   5.02  -63.23    0.13  122.68  3.000 -1.500 0 2 0 2  0.481  0.481   2.68    0.00     0.00    0.00   1    8.00     0    0    0   110 1700.0  1   1    7    0   0.000    0.000    0.000  1  0.000000  0.000000  0.000000
 11   1    1  1 0 2    10  16    59  320  320     0.00000   6.18657  1.85214e-03   961  1670   0.00   2.86   5.02  -63.30    0.12  121.18  3.000 -1.500 0 2 0 2  0.481  0.481   2.68    0.00     0.00    0.00   1    8.00     0    0    0   110 1700.0  1   1    7    0   0.000    0.000    0.000  1  0.000000  0.000000  0.000000
 12   1    1  1 0 2    11  16    59  320  320     0.00000   6.18657  1.85214e-03   988  1718   0.00   2.86   5.02  -63.38    0.12  119.68  3.000 -1.500 0 2 0 2  0.481  0.481   2.68    0.00     0.00    0.00   1    8.00     0    0    0   110 1700.0  1   1    7    0   0.000    0.000    0.000  1  0.000000  0.000000  0.000000
 13   1    1  1 0 2    12  16    59  320  320     0.00000   6.18657  1.85214e-03   995  1729   0.00   2.86   5.02  -63.45    0.11  118.19  3.000 -1.500 0 2 0 2  0.481  0.481   2.68    0.00     0.00    0.00   1    8.00     0    0    0   110 1700.0  1   1    7    0   0.000    0.000    0.000  1  0.000000  0.000000  0.000000
 14   1    1  1 0 2    13  16    59  320  320     0.00000   6.18657  1.85214e-03   946  1644   0.00   2.86   5.02  -63.53    0.10  116.69  3.000 -1.500 0 2 0 2  0.481  0.481   2.68    0.00     0.00    0.00   1    8.00     0    0    0   110 1700.0  1   1    7    0   0.000    0.000    0.000  1  0.000000  0.000000  0.000000
 15   1    1  1 0 2    14  16    59  320  320     0.00000   6.18657  1.85214e-03   928  1614   0.00   2.86   5.02  -63.60    0.10  115.19  3.000 -1.500 0 2 0 2  0.481  0.481   2.68    0.00     0.00    0.00   1    8.00     0    0    0   110 1700.0  1   1    7    0   0.000    0.000    0.000  1  0.000000  0.000000  0.000000
 16   1    1  1 0 2    15  16    59  320  320     0.00000   6.18657  1.85214e-03   946  1644   0.00   2.86   5.02  -63.67    0.09  113.69  3.000 -1.500 0 2 0 2  0.481  0.481   2.68    0.00     0.00    0.00   1    8.00     0    0    0   110 1700.0  1   1    7    0   0.000    0.000    0.000  1  0.000000  0.000000  0.000000
 17   1    1  1 0 2    16  16    59  320  320     0.00000   6.18657  1.85214e-03   993  1726   0.00   2.86   5.02  -63.75    0.08  112.19  3.000 -1.500 0 2 0 2  0.481  0.481   2.68    0.00     0.00    0.00   1    8.00     0    0    0   110 1700.0  1   1    7    0   0.000    0.000    0.000  1  0.000000  0.000000  0.000000
 18   1    1  1 0 2    17  16    59  320  320     0.00000   6.18657  1.85214e-03  1053  1830   0.00   2.86   5.02  -63.82    0.08  110.70  3.000 -1.500 0 2 0 2  0.481  0.481   2.68    0.00     0.00    0.00   1    8.00     0    0    0   110 1700.0  1   1    7    0   0.000    0.000    0.000  1  0.000000  0.000000  0.000000
 19   1    1  1 0 2    18  16    59  320  320     0.00000   6.18657  1.85214e-03  1069  1859   0.00   2.86   5.02  -63.90    0.07  109.20  3.000 -1.500 0 2 0 2  0.481  0.481   2.68    0.00     0.00    0.00   1    8.00     0    0    0   110 1700.0  1   1    7    0   0.000    0.000    0.000  1  0.000000  0.000000  0.000000
 20   1    1  1 0 2    19  16    59  320  320     0.00000   6.18657  1.85214e-03  1060  1843   0.00   2.86   5.02  -63.97    0.06  107.70  3.000 -1.500 0 2 0 2  0.481  0.481   2.68    0.00     0.00    0.00   1    8.00     0    0    0   110 1700.0  1   1    7    0   0.000    0.000    0.000  1  0.000000  0.000000  0.000000
 21   1    1  1 0 2    20  16    59  320  320     0.00000   6.18657  1.85214e-03  1078  1874   0.00   2.86   5.02  -64.05    0.06  106.20  3.000 -1.500 0 2 0 2  0.481  0.481   2.68    0.00     0.00    0.00   1    8.00     0    0    0   110 1700.0  1   1    7    0   0.000    0.000    0.000  1  0.000000  0.000000  0.000000
 22   1    1  1 0 2    21  16    59  320  320     0.00000   6.18657  1.85214e-03  1096  1904   0.00   2.86   5.02  -64.12    0.05  104.70  3.000 -1.500 0 2 0 2  0.481  0.481   2.68    0.00     0.00    0.00   1    8.00     0    0    0   110 1700.0  1   1    7    0   0.000    0.000    0.000  1  0.000000  0.000000  0.000000
 23   1    1  1 0 2    22  16    59  320  320     0.00000   6.18657  1.85214e-03  1092  1898   0.00   2.86   5.02  -64.20    0.04  103.21  3.000 -1.500 0 2 0 2  0.481  0.481   2.68    0.00     0.00    0.00   1    8.00     0    0    0   110 1700.0  1   1    7    0   0.000    0.000    0.000  1  0.000000  0.000000  0.000000
 24   1    1  1 0 2    23  16    59  320  320     0.00000   6.18657  1.85214e-03  1087  1890   0.00   2.86   5.02  -64.27    0.04  101.71  3.000 -1.500 0 2 0 2  0.481  0.481   2.68    0.00     0.00    0.00   1    8.00     0    0    0   110 1700.0  1   1    7    0   0.000    0.000    0.000  1  0.000000  0.000000  0.000000
 25   1    1  1 0 2    24  16    59  320  320     0.00000   6.18657  1.85214e-03  1091  1896   0.00   2.86   5.02  -64.35    0.03  100.21  3.000 -1.500 0 2 0 2  0.481  0.481   2.68    0.00     0.00    0.00   1    8.00     0    0    0   110 1700.0  1   1    7    0   0.000    0.000    0.000  1  0.000000  0.000000  0.000000
 26   1    1  1 0 2    25  16    59  320  320     0.00000   6.18657  1.85214e-03  1075  1868   0.00   2.86   5.02  -64.42    0.02   98.71  3.000 -1.500 0 2 0 2  0.481  0.481   2.68    0.00     0.00    0.00   1    8.00     0    0    0   110 1700.0  1   1    7    0   0.000    0.000    0.000  1  0.000000  0.000000  0.000000
 27   1    1  1 0 2    26  16    59  320  320     0.00000   6.18657  1.85214e-03  1099  1910   0.00   2.86   5.02  -64.49    0.02   97.21  3.000 -1.500 0 2 0 2  0.481  0.481   2.68    0.00     0.00    0.00   1    8.00     0    0    0   110 1700.0  1   1    7    0   0.000    0.000    0.000  1  0.000000  0.000000  0.000000
 28   1    1  1 0 2    27  16    59  320  320     0.00000   6.18657  1.85214e-03  1115  1939   0.00   2.86   5.02  -64.57    0.01   95.71  3.000 -1.500 0 2 0 2  0.481  0.481   2.68    0.00     0.00    0.00   1    8.00     0    0    0   110 1700.0  1   1    7    0   0.000    0.000    0.000  1  0.000000  0.000000  0.000000
 29   1    1  1 0 2    28  16    59  320  320     0.00000   6.18657  1.85214e-03  1125  1956   0.00   2.86   5.02  -64.64    0.01   94.22  3.000 -1.500 0 2 0 2  0.481  0.481   2.68    0.00     0.00    0.00   1    8.00     0    0    0   110 1700.0  1   1    7    0   0.000    0.000    0.000  1  0.000000  0.000000  0.000000
 30   1    1  1 0 2    29  16    59  320  320     0.00000   6.18657  1.85214e-03  1137  1976   0.00   2.86   5.02  -64.72   -0.00   92.72  3.000 -1.500 0 2 0 2  0.481  0.481   2.68    0.00     0.00    0.00   1    8.00     0    0    0   110 1700.0  1   1    7    0   0.000    0.000    0.000  1  0.000000  0.000000  0.000000
 31   1    1  1 0 2    30  16    59  320  320     0.00000   6.18657  1.85214e-03  1108  1925   0.00   2.86   5.02  -64.79   -0.01   91.22  3.000 -1.500 0 2 0 2  0.481  0.481   2.68    0.00     0.00    0.00   1    8.00     0    0    0   110 1700.0  1   1    7    0   0.000    0.000    0.000  1  0.000000  0.000000  0.000000
 32   1    1  1 0 2    31  16    59  320  320     0.00000   6.18657  1.85214e-03  1123  1953   0.00   2.86   5.02  -64.87   -0.01   89.72  3.000 -1.500 0 2 0 2  0.481  0.481   2.68    0.00     0.00    0.00   1    8.00     0    0    0   110 1700.0  1   1    7    0   0.000    0.000    0.000  1  0.000000  0.000000  0.000000
 33   1    1  1 0 2    32  16    59  320  320     0.00000   6.18657  1.85214e-03  1115  1938   0.00   2.86   5.02  -64.94   -0.02   88.22  3.000 -1.500 0 2 0 2  0.481  0.481   2.68    0.00     0.00    0.00   1    8.00     0    0    0   110 1700.0  1   1    7    0   0.000    0.000    0.000  1  0.000000  0.000000  0.000000
 34   1    1  1 0 2    33  16    59  320  320     0.00000   6.18657  1.85214e-03  1070  1860   0.00   2.86   5.02  -65.02   -0.03   86.73  3.000 -1.500 0 2 0 2  0.481  0.481   2.68    0.00     0.00    0.00   1    8.00     0    0    0   110 1700.0  1   1    7    0   0.000    0.000    0.000  1  0.000000  0.000000  0.000000
 35   1    1  1 0 2    34  16    59  320  320     0.00000   6.18657  1.85214e-03  1065  1851   0.00   2.86   5.02  -65.09   -0.03   85.23  3.000 -1.500 0 2 0 2  0.481  0.481   2.68    0.00     0.00    0.00   1    8.00     0    0    0   110 1700.0  1   1    7    0   0.000    0.000    0.000  1  0.000000  0.000000  0.000000
 36   1    1  1 0 2    35  16    59  320  320     0.00000   6.18657  1.85214e-03  1072  1863   0.00   2.86   5.02  -65.17   -0.04   83.73  3.000 -1.500 0 2 0 2  0.481  0.481   2.68    0.00     0.00    0.00   1    8.00     0    0    0   110 1700.0  1   1    7    0   0.000    0.000    0.000  1  0.000000  0.000000  0.000000
 37   1    1  1 0 2    36  16    59  320  320     0.00000   6.18657  1.85214e-03  1056  1835   0.00   2.86   5.02  -65.24   -0.05   82.23  3.000 -1.500 0 2 0 2  0.481  0.481   2.68    0.00     0.00    0.00   1    8.00     0    0    0   110 1700.0  1   1    7    0   0.000    0.000    0.000  1  0.000000  0.000000  0.000000
 38   1    1  1 0 2    37  16    59  320  320     0.00000   6.18657  1.85214e-03  1055  1833   0.00   2.86   5.02  -65.31   -0.05   80.73  3.000 -1.500 0 2 0 2  0.481  0.481   2.68    0.00     0.00    0.00   1    8.00     0    0    0   110 1700.0  1   1    7    0   0.000    0.000    0.000  1  0.000000  0.000000  0.000000
 39   1    1  1 0 2    38  16    59  320  320     0.00000   6.18657  1.85214e-03  1041  1810   0.00   2.86   5.02  -65.39   -0.06   79.24  3.000 -1.500 0 2 0 2  0.481  0.481   2.68    0.00     0.00    0.00   1    8.00     0    0    0   110 1700.0  1   1    7    0   0.000    0.000    0.000  1  0.000000  0.000000  0.000000
 40   1    1  1 0 2    39  16    59  320  320     0.00000   6.18657  1.85214e-03  1029  1789   0.00   2.86   5.02  -65.46   -0.07   77.74  3.000 -1.500 0 2 0 2  0.481  0.481   2.68    0.00     0.00    0.00   1    8.00     0    0    0   110 1700.0  1   1    7    0   0.000    0.000    0.000  1  0.000000  0.000000  0.000000
 41   1    1  1 0 2    40  16    59  320  320     0.00000   6.18657  1.85214e-03  1045  1816   0.00   2.86   5.02  -65.54   -0.07   76.24  3.000 -1.500 0 2 0 2  0.481  0.481   2.68    0.00     0.00    0.00   1    8.00     0    0    0   110 1700.0  1   1    7    0   0.000    0.000    0.000  1  0.000000  0.000000  0.000000
 42   1    1  1 0 2    41  16    59  320  320     0.00000   6.18657  1.85214e-03  1052  1829   0.00   2.86   5.02  -65.61   -0.08   74.74  3.000 -1.500 0 2 0 2  0.481  0.481   2.68    0.00     0.00    0.00   1    8.00     0    0    0   110 1700.0  1   1    7    0   0.000    0.000    0.000  1  0.000000  0.000000  0.000000
 43   1    1  1 0 2    42  16    59  320  320     0.00000   6.18657  1.85214e-03  1041  1810   0.00   2.86   5.02  -65.69   -0.09   73.24  3.000 -1.500 0 2 0 2  0.481  0.481   2.68    0.00     0.00    0.00   1    8.00     0    0    0   110 1700.0  1   1    7    0   0.000    0.000    0.000  1  0.000000  0.000000  0.000000
 44   1    1  1 0 2    43  16    59  320  320     0.00000   6.18657  1.85214e-03  1062  1847   0.00   2.86   5.02  -65.76   -0.09   71.74  3.000 -1.500 0 2 0 2  0.481  0.481   2.68    0.00     0.00    0.00   1    8.00     0    0    0   110 1700.0  1   1    7    0   0.000    0.000    0.000  1  0.000000  0.000000  0.000000
 45   1    1  1 0 2    44  16    59  320  320     0.00000   6.18657  1.85214e-03  1041  1810   0.00   2.86   5.02  -65.84   -0.10   70.25  3.000 -1.500 0 2 0 2  0.481  0.481   2.68    0.00     0.00    0.00   1    8.00     0    0    0   110 1700.0  1   1    7    0   0.000    0.000    0.000  1  0.000000  0.000000  0.000000
 46   1    1  1 0 2    45  16    59  320  320     0.00000   6.18657  1.85214e-03  1043  1813   0.00   2.86   5.02  -65.91   -0.11   68.75  3.000 -1.500 0 2 0 2  0.481  0.481   2.68    0.00     0.00    0.00   1    8.00     0    0    0   110 1700.0  1   1    7    0   0.000    0.000    0.000  1  0.000000  0.000000  0.000000
 47   1    1  1 0 2    46  16    59  320  320     0.00000   6.18657  1.85214e-03  1087  1890   0.00   2.86   5.02  -65.98   -0.11   67.25  3.000 -1.500 0 2 0 2  0.481  0.481   2.68    0.00     0.00    0.00   1    8.00     0    0    0   110 1700.0  1   1    7    0   0.000    0.000    0.000  1  0.000000  0.000000  0.000000
 48   1    1  1 0 2    47  16    59  320  320     0.00000   6.18657  1.85214e-03  1078  1873   0.00   2.86   5.02  -66.06   -0.12   65.75  3.000 -1.500 0 2 0 2  0.481  0.481   2.68    0.00     0.00    0.00   1    8.00     0    0    0   110 1700.0  1   1    7    0   0.000    0.000    0.000  1  0.000000  0.000000  0.000000
 49   1    1  1 0 2    48  16    59  320  320     0.00000   6.18657  1.85214e-03  1036  1801   0.00   2.86   5.02  -66.13   -0.13   64.25  3.000 -1.500 0 2 0 2  0.481  0.481   2.68    0.00     0.00    0.00   1    8.00     0    0    0   110 1700.0  1   1    7    0   0.000    0.000    0.000  1  0.000000  0.000000  0.000000
 50   1    1  1 0 2    49  16    59  320  320     0.00000   6.18657  1.85214e-03  1016  1767   0.00   2.86   5.02  -66.21   -0.13   62.76  3.000 -1.500 0 2 0 2  0.481  0.481   2.68    0.00     0.00    0.00   1    8.00     0    0    0   110 1700.0  1   1    7    0   0.000    0.000    0.000  1  0.000000  0.000000  0.000000
 51   1    1  1 0 2    50  16    59  320  320     0.00000   6.18657  1.85214e-03  1014  1762   0.00   2.86   5.02  -66.28   -0.14   61.26  3.000 -1.500 0 2 0 2  0.481  0.481   2.68    0.00     0.00    0.00   1    8.00     0    0    0   110 1700.0  1   1    7    0   0.000    0.000    0.000  1  0.000000  0.000000  0.000000
 52   1    1  1 0 2    51  16    59  320  320     0.00000   6.18657  1.85214e-03  1036  1800   0.00   2.86   5.02  -66.36   -0.15   59.76  3.000 -1.500 0 2 0 2  0.481  0.481   2.68    0.00     0.00    0.00   1    8.00     0    0    0   110 1700.0  1   1    7    0   0.000    0.000    0.000  1  0.000000  0.000000  0.000000
 53   1    1  1 0 2    52  16    59  320  320     0.00000   6.18657  1.85214e-03  1069  1858   0.00   2.86   5.02  -66.43   -0.15   58.26  3.000 -1.500 0 2 0 2  0.481  0.481   2.68    0.00     0.00    0.00   1    8.00     0    0    0   110 1700.0  1   1    7    0   0.000    0.000    0.000  1  0.000000  0.000000  0.000000
 54   1    1  1 0 2    53  16    59  320  320     0.00000   6.18657  1.85214e-03  1057  1838   0.00   2.86   5.02  -66.51   -0.16   56.76  3.000 -1.500 0 2 0 2  0.481  0.481   2.68    0.00     0.00    0.00   1    8.00     0    0    0   110 1700.0  1   1    7    0   0.000    0.000    0.000  1  0.000000  0.000000  0.000000
 55   1    1  1 0 2    54  16    59  320  320     0.00000   6.18657  1.85214e-03  1025  1782   0.00   2.86   5.02  -66.58   -0.16   55.27  3.000 -1.500 0 2 0 2  0.481  0.481   2.68    0.00     0.00    0.00   1    8.00     0    0    0   110 1700.0  1   1    7    0   0.000    0.000    0.000  1  0.000000  0.000000  0.000000
 56   1    1  1 0 2    55  16    59  320  320     0.00000   6.18657  1.85214e-03   979  1702   0.00   2.86   5.02  -66.66   -0.17   53.77  3.000 -1.500 0 2 0 2  0.481  0.481   2.68    0.00     0.00    0.00   1    8.00     0    0    0   110 1700.0  1   1    7    0   0.000    0.000    0.000  1  0.000000  0.000000  0.000000
 57   1    1  1 0 2    56  16    59  320  320     0.00000   6.18657  1.85214e-03   938  1631   0.00   2.86   5.02  -66.73   -0.18   52.27  3.000 -1.500 0 2 0 2  0.481  0.481   2.68    0.00     0.00    0.00   1    8.00     0    0    0   110 1700.0  1   1    7    0   0.000    0.000    0.000  1  0.000000  0.000000  0.000000
 58   1    1  1 0 2    57  16    59  320  320     0.00000   6.18657  1.85214e-03   861  1497   0.00   2.86   5.02  -66.80   -0.18   50.77  3.000 -1.500 0 2 0 2  0.481  0.481   2.68    0.00     0.00    0.00   1    8.00     0    0    0   110 1700.0  1   1    7    0   0.000    0.000    0.000  1  0.000000  0.000000  0.000000
 59   1    1  1 0 2    58  16    59  320  320     0.00000   6.18657  1.85214e-03   812  1412   0.00   2.86   5.02  -66.88   -0.19   49.27  3.000 -1.500 0 2 0 2  0.481  0.481   2.68    0.00     0.00    0.00   1    8.00     0    0    0   110 1700.0  1   1    7    0   0.000    0.000    0.000  1  0.000000  0.000000  0.000000
 60   1    1  1 0 2    59  16    59  320  320     0.00000   6.18657  1.85214e-03   777  1351   0.00   2.86   5.02  -66.95   -0.20   47.77  3.000 -1.500 0 2 0 2  0.481  0.481   2.68    0.00     0.00    0.00   1    8.00     0    0    0   110 1700.0  1   1    7    0   0.000    0.000    0.000  1  0.000000  0.000000  0.000000
 61   1    1  1 0 2    60  16    59  320  320     0.00000   6.18657  1.85214e-03   694  1206   0.00   2.86   5.02  -67.03   -0.20   46.28  3.000 -1.500 0 2 0 2  0.481  0.481   2.68    0.00     0.00    0.00   1    8.00     0    0    0   110 1700.0  1   1    7    0   0.000    0.000    0.000  1  0.000000  0.000000  0.000000
 62   1    1  1 0 2    61  16    59  320  320     0.00000   6.18657  1.85214e-03   671  1166   0.00   2.86   5.02  -67.10   -0.21   44.78  3.000 -1.500 0 2 0 2  0.481  0.481   2.68    0.00     0.00    0.00   1    8.00     0    0    0   110 1700.0  1   1    7    0   0.000    0.000    0.000  1  0.000000  0.000000  0.000000
 63   1    1  1 0 2    62  16    59  320  320     0.00000   6.18657  1.85214e-03   786  1366   0.00   2.86   5.02  -67.18   -0.22   43.28  3.000 -1.500 0 2 0 2  0.481  0.481   2.68    0.00     0.00    0.00   1    8.00     0    0    0   110 1700.0  1   1    7    0   0.000    0.000    0.000  1  0.000000  0.000000  0.000000
 64   1    1  1 0 2    63  16    59  320  320     0.00000   6.18657  1.85214e-03   667  1160   0.00   2.86   5.02  -67.25   -0.22   41.78  3.000 -1.500 0 2 0 2  0.481  0.481   2.68    0.00     0.00    0.00   1    8.00     0    0    0   110 1700.0  1   1    7    0   0.000    0.000    0.000  1  0.000000  0.000000  0.000000
 65   1    1  1 0 2    64  16    59  320  320     0.00000   6.18657  1.85214e-03   491   853   0.00   2.86   5.02  -67.33   -0.23   40.28  3.000 -1.500 0 2 0 2  0.481  0.481   2.68    0.00     0.00    0.00   1    8.00     0    0    0   110 1700.0  1   1    7    0   0.000    0.000    0.000  1  0.000000  0.000000  0.000000
 66   1    1  1 0 2    65  16    59  320  320     0.00000   6.18657  1.85214e-03   358   621   0.00   2.86   5.02  -67.40   -0.24   38.79  3.000 -1.500 0 2 0 2  0.481  0.481   2.68    0.00     0.00    0.00   1    8.00     0    0    0   110 1700.0  1   1    7    0   0.000    0.000    0.000  1  0.000000  0.000000  0.000000
  1   2    1  1 0 2    66  16    59  320  320     0.00000   8.54970  1.34021e-03   412   716   0.00   2.86   5.02  -62.56    0.19  136.16  3.000 -1.500 0 2 0 2  0.481  0.481  10.00    0.00     0.00    0.00   1    8.00     0    0    0   110 1700.0  1   1   11    0   0.000    0.000    0.000  1  0.000000  0.000000  0.000000
  2   2    1  1 0 2    67  16    59  320  320     0.00000   8.54970  1.34021e-03   500   869   0.00   2.86   5.02  -62.63    0.18  134.67  3.000 -1.500 0 2 0 2  0.481  0.481  10.00    0.00     0.00    0.00   1    8.00     0    0    0   110 1700.0  1   1   11    0   0.000    0.000    0.000  1  0.000000  0.000000  0.000000
  3   2    1  1 0 2    68  16    59  320  320     0.00000   8.54970  1.34021e-03   531   923   0.00   2.86   5.02  -62.71    0.18  133.17  3.000 -1.500 0 2 0 2  0.481  0.481  10.00    0.00     0.00    0.00   1    8.00     0    0    0   110 1700.0  1   1   11    0   0.000    0.000    0.000  1  0.000000  0.000000  0.000000
  4   2    1  1 0 2    69  16    59  320  320     0.00000   8.54970  1.34021e-03   536   932   0.00   2.86   5.02  -62.78    0.17  131.67  3.000 -1.500 0 2 0 2  0.481  0.481  10.00    0.00     0.00    0.00   1    8.00     0    0    0   110 1700.0  1   1   11    0   0.000    0.000    0.000  1  0.000000  0.000000  0.000000
  5   2    1  1 0 2    70  16    59  320  320     0.00000   8.54970  1.34021e-03   551   957   0.00   2.86   5.02  -62.86    0.16  130.17  3.000 -1.500 0 2 0 2  0.481  0.481  10.00    0.00     0.00    0.00   1    8.00     0    0    0   110 1700.0  1   1   11    0   0.000    0.000    0.000  1  0.000000  0.000000  0.000000
  6   2    1  1 0 2    71  16    59  320  320     0.00000   8.54970  1.34021e-03   573   996   0.00   2.86   5.02  -62.93    0.16  128.67  3.000 -1.500 0 2 0 2  0.481  0.481  10.00    0.00     0.00    0.00   1    8.00     0    0    0   110 1700.0  1   1   11    0   0.000    0.000    0.000  1  0.000000  0.000000  0.000000
  7   2    1  1 0 2    72  16    59  320  320     0.00000   8.54970  1.34021e-03   585  1017   0.00   2.86   5.02  -63.00    0.15  127.18  3.000 -1.500 0 2 0 2  0.481  0.481  10.00    0.00     0.00    0.00   1    8.00     0    0    0   110 1700.0  1   1   11    0   0.000    0.000    0.000  1  0.000000  0.000000  0.000000
  8   2    1  1 0 2    73  16    59  320  320     0.00000   8.54970  1.34021e-03   577  1003   0.00   2.86   5.02  -63.08    0.14  125.68  3.000 -1.500 0 2 0 2  0.481  0.481  10.00    0.00     0.00    0.00   1    8.00     0    0    0   110 1700.0  1   1   11    0   0.000    0.000    0.000  1  0.000000  0.000000  0.000000
  9   2    1  1 0 2    74  16    59  320  320     0.00000   8.54970  1.34021e-03   682  1186   0.00   2.86   5.02  -63.15    0.14  124.18  3.000 -1.500 0 2 0 2  0.481  0.481  10.00    0.00     0.00    0.00   1    8.00     0    0    0   110 1700.0  1   1   11    0   0.000    0.000    0.000  1  0.000000  0.000000  0.000000
